# wave flux
# 
# Av = 0.12147234914615246
# mass = 2.6013260543618846
# Lv = 0.7187836704369102
# sfr = 5.333476632107626e-13
# line_EW_Ha = 0.22473306966944523
# line_C_Ha = 8.400959665996868e-05
# line_flux_Ha = 1.9501574735048275e-05
# line_EW_O3 = 0.036773136106096255
# line_C_O3 = 0.00010991061963943066
# line_flux_O3 = 4.165070019680086e-06
# line_EW_Hb = 0.05879362255868929
# line_C_Hb = 8.63526158644087e-05
# line_flux_Hb = 5.21823694968537e-06
# line_EW_O2 = 0.27146939198090597
# line_C_O2 = 4.751488244648179e-05
# line_flux_O2 = 1.308027132267121e-05
# line_EW_Lya = 12.373481108045421
# line_C_Lya = 3.1857164151174866e-06
# line_flux_Lya = 4.500330709612135e-05
# 
9.100000e+01 2.121926e-15
9.400000e+01 2.264141e-15
9.600000e+01 2.361513e-15
9.800000e+01 2.460936e-15
1.000000e+02 2.562409e-15
1.020000e+02 2.665931e-15
1.040000e+02 2.771504e-15
1.060000e+02 2.879127e-15
1.080000e+02 2.988800e-15
1.100000e+02 3.100522e-15
1.140000e+02 3.330119e-15
1.180000e+02 3.567915e-15
1.210000e+02 3.751644e-15
1.250000e+02 4.003791e-15
1.270000e+02 4.132940e-15
1.280000e+02 4.198283e-15
1.310000e+02 4.397388e-15
1.320000e+02 4.464782e-15
1.340000e+02 4.601106e-15
1.370000e+02 4.809437e-15
1.400000e+02 5.022380e-15
1.430000e+02 5.239937e-15
1.470000e+02 5.537188e-15
1.510000e+02 5.842640e-15
1.550000e+02 6.156293e-15
1.590000e+02 6.478148e-15
1.620000e+02 6.724921e-15
1.660000e+02 7.061135e-15
1.700000e+02 7.405633e-15
1.730000e+02 7.669771e-15
1.770000e+02 8.031348e-15
1.800000e+02 8.322281e-15
1.820000e+02 8.538698e-15
1.860000e+02 9.072675e-15
1.910000e+02 1.123078e-14
1.940000e+02 1.482270e-14
1.980000e+02 3.404851e-14
2.020000e+02 8.077096e-14
2.050000e+02 1.746528e-13
2.100000e+02 5.618860e-13
2.160000e+02 2.045746e-12
2.200000e+02 3.635658e-12
2.230000e+02 7.092687e-12
2.270000e+02 1.485495e-11
2.300000e+02 3.077765e-11
2.340000e+02 1.457990e-10
2.400000e+02 4.993716e-10
2.460000e+02 9.768779e-10
2.520000e+02 2.537555e-09
2.570000e+02 3.269653e-09
2.600000e+02 4.345187e-09
2.640000e+02 8.385254e-09
2.690000e+02 1.061719e-08
2.740000e+02 1.581548e-08
2.790000e+02 1.694695e-08
2.840000e+02 2.652969e-08
2.900000e+02 3.697642e-08
2.960000e+02 4.222101e-08
3.010000e+02 5.661446e-08
3.080000e+02 5.610273e-08
3.180000e+02 1.125179e-07
3.280000e+02 1.684952e-07
3.380000e+02 1.754052e-07
3.480000e+02 1.973035e-07
3.570000e+02 2.686923e-07
3.660000e+02 3.327680e-07
3.750000e+02 3.478402e-07
3.850000e+02 3.182452e-07
3.950000e+02 4.379485e-07
4.050000e+02 4.912805e-07
4.140000e+02 5.201061e-07
4.220000e+02 4.960686e-07
4.300000e+02 5.084202e-07
4.410000e+02 5.261195e-07
4.510000e+02 6.039482e-07
4.600000e+02 5.957612e-07
4.700000e+02 6.404798e-07
4.800000e+02 6.310121e-07
4.900000e+02 6.704828e-07
5.000000e+02 7.203373e-07
5.060000e+02 6.677020e-07
5.120000e+02 6.929471e-07
5.200000e+02 7.595243e-07
5.300000e+02 7.716423e-07
5.400000e+02 6.403260e-07
5.500000e+02 6.127429e-07
5.600000e+02 8.254192e-07
5.700000e+02 8.312332e-07
5.800000e+02 7.743668e-07
5.900000e+02 8.934399e-07
6.000000e+02 8.344064e-07
6.100000e+02 7.744963e-07
6.200000e+02 8.193541e-07
6.300000e+02 7.615808e-07
6.400000e+02 8.201603e-07
6.500000e+02 8.531316e-07
6.580000e+02 7.636557e-07
6.650000e+02 7.539596e-07
6.750000e+02 8.231581e-07
6.850000e+02 7.754587e-07
6.950000e+02 8.096264e-07
7.050000e+02 7.993632e-07
7.160000e+02 8.762509e-07
7.260000e+02 8.396563e-07
7.350000e+02 8.489324e-07
7.450000e+02 8.006469e-07
7.550000e+02 7.882777e-07
7.650000e+02 7.017737e-07
7.750000e+02 8.139306e-07
7.850000e+02 5.690053e-07
7.950000e+02 7.905282e-07
8.050000e+02 8.389147e-07
8.150000e+02 8.117353e-07
8.250000e+02 8.099949e-07
8.350000e+02 6.916434e-07
8.450000e+02 7.477695e-07
8.550000e+02 7.519469e-07
8.650000e+02 7.589575e-07
8.750000e+02 7.855901e-07
8.850000e+02 7.908069e-07
8.950000e+02 7.891062e-07
9.050000e+02 7.799339e-07
9.150000e+02 1.499842e-06
9.250000e+02 2.615522e-06
9.350000e+02 4.146118e-06
9.450000e+02 4.842310e-06
9.550000e+02 5.034947e-06
9.650000e+02 4.898178e-06
9.750000e+02 1.912755e-06
9.850000e+02 3.092790e-06
9.950000e+02 3.837978e-06
1.005000e+03 4.934911e-06
1.015000e+03 5.131863e-06
1.025000e+03 3.918358e-06
1.035000e+03 4.330545e-06
1.045000e+03 6.016605e-06
1.055000e+03 5.619558e-06
1.065000e+03 4.760079e-06
1.075000e+03 5.144538e-06
1.085000e+03 4.287634e-06
1.095000e+03 5.414540e-06
1.105000e+03 5.061887e-06
1.115000e+03 4.791435e-06
1.125000e+03 4.006518e-06
1.135000e+03 5.130507e-06
1.145000e+03 4.849582e-06
1.155000e+03 4.730819e-06
1.165000e+03 4.607649e-06
1.175000e+03 2.906181e-06
1.185000e+03 4.471406e-06
1.195000e+03 4.201814e-06
1.205000e+03 3.357514e-06
1.215000e+03 3.185717e-06
1.225000e+03 4.109414e-06
1.235000e+03 4.350040e-06
1.245000e+03 4.532882e-06
1.255000e+03 4.328840e-06
1.265000e+03 4.410998e-06
1.275000e+03 4.601216e-06
1.285000e+03 4.499113e-06
1.295000e+03 3.869569e-06
1.305000e+03 4.032310e-06
1.315000e+03 4.409101e-06
1.325000e+03 4.173256e-06
1.335000e+03 4.029685e-06
1.345000e+03 4.123541e-06
1.355000e+03 4.086726e-06
1.365000e+03 3.812157e-06
1.375000e+03 3.754665e-06
1.385000e+03 3.545806e-06
1.395000e+03 2.592013e-06
1.405000e+03 2.926257e-06
1.415000e+03 3.372526e-06
1.425000e+03 3.259757e-06
1.435000e+03 3.391149e-06
1.442000e+03 3.448688e-06
1.447000e+03 3.390151e-06
1.455000e+03 3.306289e-06
1.465000e+03 3.081084e-06
1.475000e+03 3.161291e-06
1.485000e+03 3.150963e-06
1.495000e+03 3.108629e-06
1.505000e+03 2.886952e-06
1.512000e+03 2.592226e-06
1.517000e+03 2.668952e-06
1.525000e+03 2.706515e-06
1.535000e+03 2.287287e-06
1.545000e+03 2.049919e-06
1.555000e+03 2.290647e-06
1.565000e+03 2.342920e-06
1.575000e+03 2.526288e-06
1.585000e+03 2.530444e-06
1.595000e+03 2.575108e-06
1.605000e+03 2.546418e-06
1.615000e+03 2.519973e-06
1.625000e+03 2.451566e-06
1.635000e+03 2.579320e-06
1.645000e+03 2.600273e-06
1.655000e+03 2.519810e-06
1.665000e+03 2.599302e-06
1.672000e+03 2.425484e-06
1.677000e+03 2.733327e-06
1.685000e+03 2.698466e-06
1.695000e+03 2.540686e-06
1.705000e+03 2.486968e-06
1.715000e+03 2.364837e-06
1.725000e+03 2.385231e-06
1.735000e+03 2.528752e-06
1.745000e+03 2.456321e-06
1.755000e+03 2.551078e-06
1.765000e+03 2.452561e-06
1.775000e+03 2.379999e-06
1.785000e+03 2.437819e-06
1.795000e+03 2.592860e-06
1.805000e+03 2.555645e-06
1.815000e+03 2.345156e-06
1.825000e+03 2.407123e-06
1.835000e+03 2.362426e-06
1.845000e+03 2.119695e-06
1.855000e+03 2.239602e-06
1.865000e+03 2.352868e-06
1.875000e+03 2.399359e-06
1.885000e+03 2.226095e-06
1.895000e+03 2.210831e-06
1.905000e+03 2.317767e-06
1.915000e+03 2.258213e-06
1.925000e+03 2.108353e-06
1.935000e+03 2.015273e-06
1.945000e+03 2.388696e-06
1.955000e+03 2.227627e-06
1.967000e+03 2.519219e-06
1.976000e+03 2.488789e-06
1.984000e+03 2.493698e-06
1.995000e+03 2.482225e-06
2.005000e+03 2.453066e-06
2.015000e+03 2.467042e-06
2.025000e+03 2.364687e-06
2.035000e+03 2.466956e-06
2.045000e+03 2.618518e-06
2.055000e+03 2.500016e-06
2.065000e+03 2.475667e-06
2.074000e+03 2.729658e-06
2.078000e+03 3.559513e-06
2.085000e+03 4.095973e-06
2.095000e+03 3.803450e-06
2.105000e+03 3.687391e-06
2.115000e+03 3.987212e-06
2.125000e+03 3.694398e-06
2.135000e+03 3.492250e-06
2.145000e+03 4.091515e-06
2.155000e+03 4.131653e-06
2.165000e+03 3.724782e-06
2.175000e+03 3.760681e-06
2.185000e+03 4.402731e-06
2.195000e+03 4.419973e-06
2.205000e+03 4.309891e-06
2.215000e+03 3.547017e-06
2.225000e+03 3.933502e-06
2.235000e+03 4.915260e-06
2.245000e+03 4.721682e-06
2.255000e+03 3.805447e-06
2.265000e+03 3.643324e-06
2.275000e+03 3.944936e-06
2.285000e+03 4.982496e-06
2.295000e+03 4.217614e-06
2.305000e+03 5.015903e-06
2.315000e+03 4.370074e-06
2.325000e+03 3.533899e-06
2.335000e+03 3.300254e-06
2.345000e+03 2.531435e-06
2.355000e+03 4.094997e-06
2.365000e+03 2.719335e-06
2.375000e+03 3.311142e-06
2.385000e+03 2.294918e-06
2.395000e+03 2.685315e-06
2.405000e+03 2.683788e-06
2.415000e+03 3.048264e-06
2.425000e+03 4.726301e-06
2.435000e+03 4.754629e-06
2.445000e+03 5.559581e-06
2.455000e+03 5.876751e-06
2.465000e+03 5.144531e-06
2.475000e+03 4.606833e-06
2.485000e+03 3.173549e-06
2.495000e+03 3.544482e-06
2.505000e+03 5.391206e-06
2.513000e+03 2.711415e-06
2.518000e+03 2.290425e-06
2.525000e+03 2.475275e-06
2.535000e+03 3.642774e-06
2.545000e+03 3.844412e-06
2.555000e+03 6.526140e-06
2.565000e+03 4.957911e-06
2.575000e+03 6.236488e-06
2.585000e+03 5.566307e-06
2.595000e+03 5.027331e-06
2.605000e+03 4.397735e-06
2.615000e+03 3.987752e-06
2.625000e+03 5.378697e-06
2.635000e+03 9.022510e-06
2.645000e+03 1.211854e-05
2.655000e+03 1.666511e-05
2.665000e+03 1.063491e-05
2.675000e+03 1.211961e-05
2.685000e+03 1.397590e-05
2.695000e+03 1.022970e-05
2.705000e+03 1.263716e-05
2.715000e+03 9.218919e-06
2.725000e+03 7.503447e-06
2.735000e+03 9.425126e-06
2.745000e+03 5.346776e-06
2.755000e+03 7.218376e-06
2.765000e+03 9.413321e-06
2.775000e+03 1.011278e-05
2.785000e+03 6.088422e-06
2.795000e+03 2.850728e-06
2.805000e+03 3.408535e-06
2.815000e+03 8.936433e-06
2.825000e+03 1.311433e-05
2.835000e+03 1.239502e-05
2.845000e+03 9.232482e-06
2.855000e+03 5.576118e-06
2.865000e+03 1.259122e-05
2.875000e+03 1.669209e-05
2.885000e+03 1.519310e-05
2.895000e+03 1.847814e-05
2.910000e+03 2.500838e-05
2.930000e+03 2.179484e-05
2.950000e+03 2.018497e-05
2.970000e+03 2.124073e-05
2.990000e+03 2.158541e-05
3.010000e+03 2.180845e-05
3.030000e+03 2.322087e-05
3.050000e+03 2.430688e-05
3.070000e+03 2.649523e-05
3.090000e+03 2.596273e-05
3.110000e+03 2.993569e-05
3.130000e+03 2.779149e-05
3.150000e+03 2.783373e-05
3.170000e+03 3.064191e-05
3.190000e+03 2.654985e-05
3.210000e+03 2.949873e-05
3.230000e+03 2.490906e-05
3.250000e+03 3.484181e-05
3.270000e+03 4.068594e-05
3.290000e+03 3.993437e-05
3.310000e+03 3.753075e-05
3.330000e+03 3.864888e-05
3.350000e+03 3.736250e-05
3.370000e+03 2.834509e-05
3.390000e+03 3.218580e-05
3.410000e+03 3.300739e-05
3.430000e+03 3.485085e-05
3.450000e+03 3.656302e-05
3.470000e+03 3.782808e-05
3.490000e+03 4.236921e-05
3.510000e+03 4.516717e-05
3.530000e+03 4.068626e-05
3.550000e+03 4.695840e-05
3.570000e+03 3.289138e-05
3.590000e+03 3.348975e-05
3.601827e+03 5.220588e-05
3.602727e+03 4.701565e-05
3.603628e+03 4.128527e-05
3.604528e+03 3.852348e-05
3.605428e+03 3.713581e-05
3.606329e+03 3.643763e-05
3.607229e+03 3.784794e-05
3.608129e+03 3.848167e-05
3.609029e+03 3.482399e-05
3.609929e+03 3.050650e-05
3.610830e+03 3.088270e-05
3.611730e+03 3.561408e-05
3.612630e+03 3.997239e-05
3.613530e+03 4.026907e-05
3.614430e+03 3.922157e-05
3.615331e+03 4.181533e-05
3.616231e+03 4.601593e-05
3.617131e+03 4.664334e-05
3.618032e+03 4.128661e-05
3.618932e+03 3.255838e-05
3.619832e+03 2.741534e-05
3.620732e+03 2.963197e-05
3.621633e+03 3.557227e-05
3.622533e+03 4.133579e-05
3.623433e+03 4.515335e-05
3.624333e+03 4.526507e-05
3.625233e+03 4.489765e-05
3.626134e+03 4.869836e-05
3.627034e+03 5.432086e-05
3.627934e+03 5.672794e-05
3.628834e+03 5.587777e-05
3.629735e+03 5.320920e-05
3.630635e+03 4.659683e-05
3.631535e+03 3.634450e-05
3.632435e+03 3.020876e-05
3.633336e+03 3.225342e-05
3.634236e+03 3.666953e-05
3.635136e+03 3.841636e-05
3.636036e+03 3.943989e-05
3.636936e+03 4.174715e-05
3.637837e+03 4.418984e-05
3.638737e+03 4.679592e-05
3.639637e+03 5.012361e-05
3.640537e+03 5.260942e-05
3.641438e+03 5.268001e-05
3.642338e+03 5.069219e-05
3.643238e+03 4.785796e-05
3.644138e+03 4.517114e-05
3.645039e+03 4.230069e-05
3.645939e+03 4.026098e-05
3.646839e+03 3.987792e-05
3.647739e+03 3.851399e-05
3.648640e+03 3.574367e-05
3.649540e+03 3.545974e-05
3.650440e+03 3.811132e-05
3.651340e+03 4.160215e-05
3.652240e+03 4.549230e-05
3.653141e+03 4.975090e-05
3.654041e+03 5.237421e-05
3.654941e+03 5.263834e-05
3.655841e+03 5.234855e-05
3.656742e+03 5.336979e-05
3.657642e+03 5.543317e-05
3.658542e+03 5.733603e-05
3.659442e+03 5.883965e-05
3.660343e+03 5.903350e-05
3.661243e+03 5.809398e-05
3.662143e+03 5.731600e-05
3.663043e+03 5.553345e-05
3.663943e+03 5.249418e-05
3.664844e+03 5.093622e-05
3.665744e+03 5.258264e-05
3.666644e+03 5.431143e-05
3.667544e+03 5.382988e-05
3.668445e+03 5.272367e-05
3.669345e+03 5.023665e-05
3.670245e+03 4.679590e-05
3.671145e+03 4.708217e-05
3.672046e+03 5.214778e-05
3.672946e+03 5.675100e-05
3.673846e+03 5.660481e-05
3.674746e+03 5.481120e-05
3.675646e+03 5.535013e-05
3.676547e+03 5.571435e-05
3.677447e+03 5.210088e-05
3.678347e+03 4.743783e-05
3.679247e+03 4.530299e-05
3.680148e+03 4.371259e-05
3.681048e+03 4.255026e-05
3.681948e+03 4.465297e-05
3.682848e+03 4.815873e-05
3.683749e+03 5.045068e-05
3.684649e+03 5.128630e-05
3.685549e+03 4.955904e-05
3.686449e+03 4.559350e-05
3.687349e+03 4.135563e-05
3.688250e+03 3.889708e-05
3.689150e+03 4.033665e-05
3.690050e+03 4.545047e-05
3.690950e+03 5.182870e-05
3.691851e+03 5.774110e-05
3.692751e+03 6.027879e-05
3.693651e+03 5.725990e-05
3.694551e+03 5.238458e-05
3.695451e+03 5.093485e-05
3.696352e+03 5.187565e-05
3.697252e+03 5.213568e-05
3.698152e+03 5.314136e-05
3.699052e+03 5.687257e-05
3.699953e+03 6.155090e-05
3.700853e+03 6.352951e-05
3.701753e+03 6.188663e-05
3.702653e+03 5.900019e-05
3.703554e+03 5.505138e-05
3.704454e+03 4.864019e-05
3.705354e+03 4.155797e-05
3.706254e+03 3.749814e-05
3.707155e+03 3.792899e-05
3.708055e+03 3.996296e-05
3.708955e+03 4.011660e-05
3.709855e+03 3.987482e-05
3.710755e+03 4.283263e-05
3.711656e+03 4.846570e-05
3.712556e+03 5.359796e-05
3.713456e+03 5.839964e-05
3.714356e+03 6.333758e-05
3.715257e+03 6.537458e-05
3.716157e+03 6.276809e-05
3.717057e+03 5.931893e-05
3.717957e+03 5.710480e-05
3.718858e+03 5.231265e-05
3.719758e+03 4.294845e-05
3.720658e+03 3.356900e-05
3.721558e+03 2.885715e-05
3.722458e+03 2.890315e-05
3.723359e+03 3.308395e-05
3.724259e+03 4.064107e-05
3.725159e+03 4.853871e-05
3.726059e+03 5.433037e-05
3.726960e+03 5.463791e-05
3.727860e+03 4.849180e-05
3.728760e+03 4.486808e-05
3.729660e+03 4.893610e-05
3.730561e+03 5.252024e-05
3.731461e+03 5.033681e-05
3.732361e+03 4.591470e-05
3.733261e+03 4.044099e-05
3.734162e+03 3.313097e-05
3.735062e+03 2.680737e-05
3.735962e+03 2.471739e-05
3.736862e+03 2.609523e-05
3.737762e+03 2.885507e-05
3.738663e+03 3.410183e-05
3.739563e+03 4.157407e-05
3.740463e+03 4.864125e-05
3.741363e+03 5.361731e-05
3.742264e+03 5.411728e-05
3.743164e+03 4.968881e-05
3.744064e+03 4.367058e-05
3.744964e+03 3.962118e-05
3.745865e+03 3.656177e-05
3.746765e+03 3.407047e-05
3.747665e+03 3.378919e-05
3.748565e+03 3.205732e-05
3.749465e+03 2.698599e-05
3.750366e+03 2.479663e-05
3.751266e+03 3.023905e-05
3.752166e+03 3.972090e-05
3.753066e+03 4.691867e-05
3.753967e+03 5.104925e-05
3.754867e+03 5.588018e-05
3.755767e+03 6.134960e-05
3.756668e+03 6.249754e-05
3.757568e+03 5.544103e-05
3.758468e+03 4.352220e-05
3.759368e+03 3.629356e-05
3.760268e+03 3.834165e-05
3.761169e+03 4.442346e-05
3.762069e+03 4.822906e-05
3.762969e+03 4.889407e-05
3.763869e+03 4.685340e-05
3.764769e+03 4.533774e-05
3.765670e+03 4.753068e-05
3.766570e+03 4.856671e-05
3.767470e+03 4.483907e-05
3.768370e+03 4.244253e-05
3.769271e+03 4.559428e-05
3.770171e+03 4.879660e-05
3.771071e+03 4.809342e-05
3.771971e+03 4.856776e-05
3.772872e+03 5.332084e-05
3.773772e+03 5.820529e-05
3.774672e+03 5.935236e-05
3.775572e+03 5.792775e-05
3.776472e+03 5.699105e-05
3.777373e+03 5.768776e-05
3.778273e+03 5.848923e-05
3.779173e+03 5.883565e-05
3.780073e+03 6.105900e-05
3.780974e+03 6.465259e-05
3.781874e+03 6.609236e-05
3.782774e+03 6.529806e-05
3.783675e+03 6.536603e-05
3.784575e+03 6.743725e-05
3.785475e+03 6.764854e-05
3.786375e+03 6.139015e-05
3.787275e+03 5.271847e-05
3.788176e+03 4.866963e-05
3.789076e+03 4.764657e-05
3.789976e+03 4.624338e-05
3.790876e+03 4.624674e-05
3.791776e+03 4.963683e-05
3.792677e+03 5.275244e-05
3.793577e+03 5.140711e-05
3.794477e+03 4.720737e-05
3.795378e+03 4.368934e-05
3.796278e+03 4.265962e-05
3.797178e+03 4.265342e-05
3.798078e+03 3.991542e-05
3.798978e+03 3.581516e-05
3.799879e+03 3.582660e-05
3.800779e+03 4.155708e-05
3.801679e+03 4.863885e-05
3.802579e+03 5.334532e-05
3.803479e+03 5.740392e-05
3.804380e+03 6.121578e-05
3.805280e+03 6.251792e-05
3.806180e+03 6.080389e-05
3.807081e+03 5.662432e-05
3.807981e+03 5.285495e-05
3.808881e+03 5.387472e-05
3.809781e+03 5.878989e-05
3.810682e+03 6.307974e-05
3.811582e+03 6.462175e-05
3.812482e+03 6.307946e-05
3.813382e+03 5.800374e-05
3.814282e+03 5.128289e-05
3.815183e+03 4.615999e-05
3.816083e+03 4.256694e-05
3.816983e+03 4.198820e-05
3.817883e+03 4.651017e-05
3.818784e+03 5.108991e-05
3.819684e+03 4.915112e-05
3.820584e+03 4.157511e-05
3.821484e+03 3.649788e-05
3.822385e+03 3.961122e-05
3.823285e+03 4.591378e-05
3.824185e+03 4.664077e-05
3.825085e+03 4.094231e-05
3.825985e+03 3.508148e-05
3.826886e+03 3.302790e-05
3.827786e+03 3.383071e-05
3.828686e+03 3.496912e-05
3.829586e+03 3.587833e-05
3.830486e+03 3.750506e-05
3.831387e+03 3.886036e-05
3.832287e+03 3.682885e-05
3.833187e+03 3.202428e-05
3.834088e+03 2.872172e-05
3.834988e+03 2.821848e-05
3.835888e+03 3.020517e-05
3.836788e+03 3.368901e-05
3.837689e+03 3.540790e-05
3.838589e+03 3.359210e-05
3.839489e+03 3.131052e-05
3.840389e+03 3.129625e-05
3.841289e+03 3.292531e-05
3.842190e+03 3.745550e-05
3.843090e+03 4.470015e-05
3.843990e+03 5.010132e-05
3.844890e+03 5.218573e-05
3.845791e+03 5.244890e-05
3.846691e+03 5.200736e-05
3.847591e+03 5.296691e-05
3.848491e+03 5.534597e-05
3.849392e+03 5.500059e-05
3.850292e+03 5.053463e-05
3.851192e+03 4.778340e-05
3.852092e+03 5.098897e-05
3.852992e+03 5.535396e-05
3.853893e+03 5.554225e-05
3.854793e+03 5.307494e-05
3.855693e+03 5.050966e-05
3.856593e+03 4.809111e-05
3.857494e+03 4.727788e-05
3.858394e+03 4.739009e-05
3.859294e+03 4.410223e-05
3.860194e+03 3.879095e-05
3.861095e+03 3.770836e-05
3.861995e+03 4.305462e-05
3.862895e+03 5.128116e-05
3.863795e+03 5.706118e-05
3.864696e+03 5.800007e-05
3.865596e+03 5.582370e-05
3.866496e+03 5.349867e-05
3.867396e+03 5.306324e-05
3.868296e+03 5.367139e-05
3.869197e+03 5.366800e-05
3.870097e+03 5.226296e-05
3.870997e+03 4.908738e-05
3.871897e+03 4.487803e-05
3.872798e+03 4.158543e-05
3.873698e+03 4.189548e-05
3.874598e+03 4.728558e-05
3.875498e+03 5.458689e-05
3.876398e+03 5.835768e-05
3.877299e+03 5.644276e-05
3.878199e+03 4.997769e-05
3.879099e+03 4.366050e-05
3.879999e+03 4.410390e-05
3.880900e+03 4.897569e-05
3.881800e+03 4.977619e-05
3.882700e+03 4.579960e-05
3.883600e+03 4.461349e-05
3.884501e+03 4.946453e-05
3.885401e+03 5.253646e-05
3.886301e+03 4.741503e-05
3.887201e+03 4.009001e-05
3.888102e+03 3.789391e-05
3.889002e+03 3.865075e-05
3.889902e+03 3.948070e-05
3.890802e+03 4.337731e-05
3.891703e+03 5.054014e-05
3.892603e+03 5.705695e-05
3.893503e+03 6.010949e-05
3.894403e+03 5.986782e-05
3.895303e+03 5.776334e-05
3.896204e+03 5.551474e-05
3.897104e+03 5.683214e-05
3.898004e+03 6.070739e-05
3.898904e+03 6.113855e-05
3.899805e+03 5.827810e-05
3.900705e+03 5.688205e-05
3.901605e+03 5.984637e-05
3.902505e+03 6.300726e-05
3.903406e+03 6.090077e-05
3.904306e+03 5.760520e-05
3.905206e+03 5.651705e-05
3.906106e+03 5.385393e-05
3.907006e+03 5.177994e-05
3.907907e+03 5.563020e-05
3.908807e+03 6.261889e-05
3.909707e+03 6.731089e-05
3.910607e+03 6.842616e-05
3.911508e+03 6.862279e-05
3.912408e+03 7.036489e-05
3.913308e+03 7.176224e-05
3.914208e+03 7.066144e-05
3.915109e+03 6.916986e-05
3.916009e+03 6.862912e-05
3.916909e+03 6.698438e-05
3.917809e+03 6.513084e-05
3.918710e+03 6.424276e-05
3.919610e+03 6.222982e-05
3.920510e+03 5.810553e-05
3.921410e+03 5.349704e-05
3.922310e+03 5.163105e-05
3.923211e+03 5.287824e-05
3.924111e+03 5.524909e-05
3.925011e+03 5.739059e-05
3.925911e+03 5.662838e-05
3.926812e+03 5.289858e-05
3.927712e+03 4.827412e-05
3.928612e+03 4.246436e-05
3.929512e+03 3.629996e-05
3.930413e+03 3.137599e-05
3.931313e+03 2.699786e-05
3.932213e+03 2.276940e-05
3.933113e+03 1.875875e-05
3.934013e+03 1.553387e-05
3.934914e+03 1.447464e-05
3.935814e+03 1.625804e-05
3.936714e+03 2.039082e-05
3.937614e+03 2.583040e-05
3.938515e+03 3.167386e-05
3.939415e+03 3.797874e-05
3.940315e+03 4.423895e-05
3.941215e+03 4.827691e-05
3.942116e+03 4.967709e-05
3.943016e+03 5.002390e-05
3.943916e+03 4.873562e-05
