# wave flux
# 
# Av = 2.9416957863161213
# mass = 1.076806875010294
# Lv = 0.28038742376539694
# sfr = 1.3085799453023526e-09
# line_EW_Ha = 243.27536894275127
# line_C_Ha = 3.7685112901336543e-05
# line_flux_Ha = 0.009426695076570605
# line_EW_O3 = 54.70907452124684
# line_C_O3 = 3.936448650582473e-05
# line_flux_O3 = 0.0021771157673223735
# line_EW_Hb = 46.32809333347158
# line_C_Hb = 2.2211084961910538e-05
# line_flux_Hb = 0.0010527576500113233
# line_EW_O2 = 68.52003239134298
# line_C_O2 = 1.2973422046760491e-05
# line_flux_O2 = 0.0008887018384991824
# line_EW_Lya = 99.0876437897733
# line_C_Lya = 8.016930252868044e-07
# line_flux_Lya = 9.029210331380874e-05
# 
9.100000e+01 1.849699e-13
9.400000e+01 1.973669e-13
9.600000e+01 2.058549e-13
9.800000e+01 2.145217e-13
1.000000e+02 2.233671e-13
1.020000e+02 2.323913e-13
1.040000e+02 2.415941e-13
1.060000e+02 2.509757e-13
1.080000e+02 2.605359e-13
1.100000e+02 2.702749e-13
1.140000e+02 2.902890e-13
1.180000e+02 3.110179e-13
1.210000e+02 3.270337e-13
1.250000e+02 3.490136e-13
1.270000e+02 3.602716e-13
1.280000e+02 3.659676e-13
1.310000e+02 3.833237e-13
1.320000e+02 3.891984e-13
1.340000e+02 4.010819e-13
1.370000e+02 4.192423e-13
1.400000e+02 4.378048e-13
1.430000e+02 4.567693e-13
1.470000e+02 4.826809e-13
1.510000e+02 5.093074e-13
1.550000e+02 5.366488e-13
1.590000e+02 5.647051e-13
1.620000e+02 5.862164e-13
1.660000e+02 6.155238e-13
1.700000e+02 6.455461e-13
1.730000e+02 6.685319e-13
1.770000e+02 6.998053e-13
1.800000e+02 7.237296e-13
1.820000e+02 7.399026e-13
1.860000e+02 7.727852e-13
1.910000e+02 8.148985e-13
1.940000e+02 8.407122e-13
1.980000e+02 8.757915e-13
2.020000e+02 9.116531e-13
2.050000e+02 9.391549e-13
2.100000e+02 9.865969e-13
2.160000e+02 1.047383e-12
2.200000e+02 1.088747e-12
2.230000e+02 1.127310e-12
2.270000e+02 1.188211e-12
2.300000e+02 1.247526e-12
2.340000e+02 1.438375e-12
2.400000e+02 2.039315e-12
2.460000e+02 3.087782e-12
2.520000e+02 6.057664e-12
2.570000e+02 6.993865e-12
2.600000e+02 8.921485e-12
2.640000e+02 1.798833e-11
2.690000e+02 2.211712e-11
2.740000e+02 3.276699e-11
2.790000e+02 3.280866e-11
2.840000e+02 5.312904e-11
2.900000e+02 7.434501e-11
2.960000e+02 8.966237e-11
3.010000e+02 1.113065e-10
3.080000e+02 1.105663e-10
3.180000e+02 2.344790e-10
3.280000e+02 3.564686e-10
3.380000e+02 3.717892e-10
3.480000e+02 3.794771e-10
3.570000e+02 6.348059e-10
3.660000e+02 7.222203e-10
3.750000e+02 7.507467e-10
3.850000e+02 6.711365e-10
3.950000e+02 9.718352e-10
4.050000e+02 1.086922e-09
4.140000e+02 1.212346e-09
4.220000e+02 1.107650e-09
4.300000e+02 1.188794e-09
4.410000e+02 1.302897e-09
4.510000e+02 1.446594e-09
4.600000e+02 1.517511e-09
4.700000e+02 1.575581e-09
4.800000e+02 1.639352e-09
4.900000e+02 1.678370e-09
5.000000e+02 1.826195e-09
5.060000e+02 1.819190e-09
5.120000e+02 1.825108e-09
5.200000e+02 2.044433e-09
5.300000e+02 2.116989e-09
5.400000e+02 1.987883e-09
5.500000e+02 2.046575e-09
5.600000e+02 2.324350e-09
5.700000e+02 2.345973e-09
5.800000e+02 2.288730e-09
5.900000e+02 2.521745e-09
6.000000e+02 2.583353e-09
6.100000e+02 2.307403e-09
6.200000e+02 2.647460e-09
6.300000e+02 2.657319e-09
6.400000e+02 2.682108e-09
6.500000e+02 2.680274e-09
6.580000e+02 2.665153e-09
6.650000e+02 2.725312e-09
6.750000e+02 2.872860e-09
6.850000e+02 2.897223e-09
6.950000e+02 2.787541e-09
7.050000e+02 3.076123e-09
7.160000e+02 3.073057e-09
7.260000e+02 3.113257e-09
7.350000e+02 3.164638e-09
7.450000e+02 3.104251e-09
7.550000e+02 3.294793e-09
7.650000e+02 3.269928e-09
7.750000e+02 3.417156e-09
7.850000e+02 2.920460e-09
7.950000e+02 3.556948e-09
8.050000e+02 3.609745e-09
8.150000e+02 3.617801e-09
8.250000e+02 3.771445e-09
8.350000e+02 3.999067e-09
8.450000e+02 3.940228e-09
8.550000e+02 3.822649e-09
8.650000e+02 4.156535e-09
8.750000e+02 4.132063e-09
8.850000e+02 4.378024e-09
8.950000e+02 4.475226e-09
9.050000e+02 4.993135e-09
9.150000e+02 6.806128e-07
9.250000e+02 5.842566e-07
9.350000e+02 9.095560e-07
9.450000e+02 9.632208e-07
9.550000e+02 9.297192e-07
9.650000e+02 9.750256e-07
9.750000e+02 5.665253e-07
9.850000e+02 6.624709e-07
9.950000e+02 9.999730e-07
1.005000e+03 1.072077e-06
1.015000e+03 1.043634e-06
1.025000e+03 7.701012e-07
1.035000e+03 8.517673e-07
1.045000e+03 1.364495e-06
1.055000e+03 1.358154e-06
1.065000e+03 1.257153e-06
1.075000e+03 1.402528e-06
1.085000e+03 1.198913e-06
1.095000e+03 1.400228e-06
1.105000e+03 1.351024e-06
1.115000e+03 1.231547e-06
1.125000e+03 1.113241e-06
1.135000e+03 1.468710e-06
1.145000e+03 1.385791e-06
1.155000e+03 1.378510e-06
1.165000e+03 1.353944e-06
1.175000e+03 9.984434e-07
1.185000e+03 1.264331e-06
1.195000e+03 1.544706e-06
1.205000e+03 3.006563e-06
1.215000e+03 4.379165e-06
1.225000e+03 3.317270e-06
1.235000e+03 1.696551e-06
1.245000e+03 1.439202e-06
1.255000e+03 1.461217e-06
1.265000e+03 1.394784e-06
1.275000e+03 1.585280e-06
1.285000e+03 1.589009e-06
1.295000e+03 1.468949e-06
1.305000e+03 1.472639e-06
1.315000e+03 1.638858e-06
1.325000e+03 1.581838e-06
1.335000e+03 1.501991e-06
1.345000e+03 1.675070e-06
1.355000e+03 1.610630e-06
1.365000e+03 1.523028e-06
1.375000e+03 1.632911e-06
1.385000e+03 1.506753e-06
1.395000e+03 1.467804e-06
1.405000e+03 1.783927e-06
1.415000e+03 1.572281e-06
1.425000e+03 1.554271e-06
1.435000e+03 1.575995e-06
1.442000e+03 1.648220e-06
1.447000e+03 1.642718e-06
1.455000e+03 1.640249e-06
1.465000e+03 1.606556e-06
1.475000e+03 1.618778e-06
1.485000e+03 1.662042e-06
1.495000e+03 1.690688e-06
1.505000e+03 1.629410e-06
1.512000e+03 1.518045e-06
1.517000e+03 1.532897e-06
1.525000e+03 1.533342e-06
1.535000e+03 1.285189e-06
1.545000e+03 1.129667e-06
1.555000e+03 1.650275e-06
1.565000e+03 1.446712e-06
1.575000e+03 1.518763e-06
1.585000e+03 1.569301e-06
1.595000e+03 1.664889e-06
1.605000e+03 1.580761e-06
1.615000e+03 1.653254e-06
1.625000e+03 1.548516e-06
1.635000e+03 1.615859e-06
1.645000e+03 1.669300e-06
1.655000e+03 1.529269e-06
1.665000e+03 1.708518e-06
1.672000e+03 1.544728e-06
1.677000e+03 1.693740e-06
1.685000e+03 1.803741e-06
1.695000e+03 1.714690e-06
1.705000e+03 1.637993e-06
1.715000e+03 1.514432e-06
1.725000e+03 1.603470e-06
1.735000e+03 1.779457e-06
1.745000e+03 1.693635e-06
1.755000e+03 1.799631e-06
1.765000e+03 1.712851e-06
1.775000e+03 1.726132e-06
1.785000e+03 1.750352e-06
1.795000e+03 1.864743e-06
1.805000e+03 1.828660e-06
1.815000e+03 1.748148e-06
1.825000e+03 1.731287e-06
1.835000e+03 1.771052e-06
1.845000e+03 1.667226e-06
1.855000e+03 1.680885e-06
1.865000e+03 1.715434e-06
1.875000e+03 1.752272e-06
1.885000e+03 1.653672e-06
1.895000e+03 1.653450e-06
1.905000e+03 1.745300e-06
1.915000e+03 1.694530e-06
1.925000e+03 1.645067e-06
1.935000e+03 1.683018e-06
1.945000e+03 1.756879e-06
1.955000e+03 1.574456e-06
1.967000e+03 1.768188e-06
1.976000e+03 1.757185e-06
1.984000e+03 1.683426e-06
1.995000e+03 1.635368e-06
2.005000e+03 1.608554e-06
2.015000e+03 1.589492e-06
2.025000e+03 1.616823e-06
2.035000e+03 1.539056e-06
2.045000e+03 1.558084e-06
2.055000e+03 1.511321e-06
2.065000e+03 1.507732e-06
2.074000e+03 1.554348e-06
2.078000e+03 1.501818e-06
2.085000e+03 1.486613e-06
2.095000e+03 1.461696e-06
2.105000e+03 1.450263e-06
2.115000e+03 1.423195e-06
2.125000e+03 1.447162e-06
2.135000e+03 1.373315e-06
2.145000e+03 1.399042e-06
2.155000e+03 1.416458e-06
2.165000e+03 1.385512e-06
2.175000e+03 1.385204e-06
2.185000e+03 1.390872e-06
2.195000e+03 1.447483e-06
2.205000e+03 1.439123e-06
2.215000e+03 1.414578e-06
2.225000e+03 1.424033e-06
2.235000e+03 1.523748e-06
2.245000e+03 1.517047e-06
2.255000e+03 1.516927e-06
2.265000e+03 1.572977e-06
2.275000e+03 1.651546e-06
2.285000e+03 1.729869e-06
2.295000e+03 1.707099e-06
2.305000e+03 1.795424e-06
2.315000e+03 1.814267e-06
2.325000e+03 1.669923e-06
2.335000e+03 1.858866e-06
2.345000e+03 1.851567e-06
2.355000e+03 2.003628e-06
2.365000e+03 1.960193e-06
2.375000e+03 2.060161e-06
2.385000e+03 2.016049e-06
2.395000e+03 2.149743e-06
2.405000e+03 2.161957e-06
2.415000e+03 2.245928e-06
2.425000e+03 2.384089e-06
2.435000e+03 2.386044e-06
2.445000e+03 2.518764e-06
2.455000e+03 2.562259e-06
2.465000e+03 2.612990e-06
2.475000e+03 2.615966e-06
2.485000e+03 2.701332e-06
2.495000e+03 2.661307e-06
2.505000e+03 2.884107e-06
2.513000e+03 2.757350e-06
2.518000e+03 2.815699e-06
2.525000e+03 2.788222e-06
2.535000e+03 2.856943e-06
2.545000e+03 2.897355e-06
2.555000e+03 3.056686e-06
2.565000e+03 3.078802e-06
2.575000e+03 3.230873e-06
2.585000e+03 3.271811e-06
2.595000e+03 3.305691e-06
2.605000e+03 3.296385e-06
2.615000e+03 3.323540e-06
2.625000e+03 3.459085e-06
2.635000e+03 3.565049e-06
2.645000e+03 3.797487e-06
2.655000e+03 3.901396e-06
2.665000e+03 3.783875e-06
2.675000e+03 3.922790e-06
2.685000e+03 3.970766e-06
2.695000e+03 3.919281e-06
2.705000e+03 4.030299e-06
2.715000e+03 3.981721e-06
2.725000e+03 4.038328e-06
2.735000e+03 4.207998e-06
2.745000e+03 3.971331e-06
2.755000e+03 4.073416e-06
2.765000e+03 4.216576e-06
2.775000e+03 4.393567e-06
2.785000e+03 4.393766e-06
2.795000e+03 4.058687e-06
2.805000e+03 4.257275e-06
2.815000e+03 4.670776e-06
2.825000e+03 4.777886e-06
2.835000e+03 4.731823e-06
2.845000e+03 4.734845e-06
2.855000e+03 4.715762e-06
2.865000e+03 4.986558e-06
2.875000e+03 5.036598e-06
2.885000e+03 5.108818e-06
2.895000e+03 5.151339e-06
2.910000e+03 5.458869e-06
2.930000e+03 5.491844e-06
2.950000e+03 5.583979e-06
2.970000e+03 5.769812e-06
2.990000e+03 5.922036e-06
3.010000e+03 6.095740e-06
3.030000e+03 6.245463e-06
3.050000e+03 6.394868e-06
3.070000e+03 6.544037e-06
3.090000e+03 6.714900e-06
3.110000e+03 6.856230e-06
3.130000e+03 6.972003e-06
3.150000e+03 7.155810e-06
3.170000e+03 7.319222e-06
3.190000e+03 7.311606e-06
3.210000e+03 7.608167e-06
3.230000e+03 7.635473e-06
3.250000e+03 7.978567e-06
3.270000e+03 8.262113e-06
3.290000e+03 8.427018e-06
3.310000e+03 8.612743e-06
3.330000e+03 8.771187e-06
3.350000e+03 8.894029e-06
3.370000e+03 8.942921e-06
3.390000e+03 9.181845e-06
3.410000e+03 9.424764e-06
3.430000e+03 9.620458e-06
3.450000e+03 9.792881e-06
3.470000e+03 9.989598e-06
3.490000e+03 1.025484e-05
3.510000e+03 1.056180e-05
3.530000e+03 1.068379e-05
3.550000e+03 1.105132e-05
3.570000e+03 1.094129e-05
3.590000e+03 1.113955e-05
3.601827e+03 1.182242e-05
3.602727e+03 1.162440e-05
3.603628e+03 1.148871e-05
3.604528e+03 1.141410e-05
3.605428e+03 1.136728e-05
3.606329e+03 1.142002e-05
3.607229e+03 1.153983e-05
3.608129e+03 1.155413e-05
3.609029e+03 1.140978e-05
3.609929e+03 1.127379e-05
3.610830e+03 1.126340e-05
3.611730e+03 1.136456e-05
3.612630e+03 1.144607e-05
3.613530e+03 1.135694e-05
3.614430e+03 1.132891e-05
3.615331e+03 1.152807e-05
3.616231e+03 1.177446e-05
3.617131e+03 1.184082e-05
3.618032e+03 1.167630e-05
3.618932e+03 1.136809e-05
3.619832e+03 1.122069e-05
3.620732e+03 1.132666e-05
3.621633e+03 1.153966e-05
3.622533e+03 1.173985e-05
3.623433e+03 1.185303e-05
3.624333e+03 1.183278e-05
3.625233e+03 1.183102e-05
3.626134e+03 1.199226e-05
3.627034e+03 1.224273e-05
3.627934e+03 1.233842e-05
3.628834e+03 1.231174e-05
3.629735e+03 1.220406e-05
3.630635e+03 1.191881e-05
3.631535e+03 1.151581e-05
3.632435e+03 1.129910e-05
3.633336e+03 1.137408e-05
3.634236e+03 1.151532e-05
3.635136e+03 1.159428e-05
3.636036e+03 1.169822e-05
3.636936e+03 1.183902e-05
3.637837e+03 1.193581e-05
3.638737e+03 1.204242e-05
3.639637e+03 1.214528e-05
3.640537e+03 1.214909e-05
3.641438e+03 1.201471e-05
3.642338e+03 1.184906e-05
3.643238e+03 1.168369e-05
3.644138e+03 1.152136e-05
3.645039e+03 1.136700e-05
3.645939e+03 1.131880e-05
3.646839e+03 1.134215e-05
3.647739e+03 1.132413e-05
3.648640e+03 1.127254e-05
3.649540e+03 1.129165e-05
3.650440e+03 1.129993e-05
3.651340e+03 1.132078e-05
3.652240e+03 1.140258e-05
3.653141e+03 1.152689e-05
3.654041e+03 1.161823e-05
3.654941e+03 1.162989e-05
3.655841e+03 1.161798e-05
3.656742e+03 1.161236e-05
3.657642e+03 1.165072e-05
3.658542e+03 1.169747e-05
3.659442e+03 1.170399e-05
3.660343e+03 1.165165e-05
3.661243e+03 1.158457e-05
3.662143e+03 1.156768e-05
3.663043e+03 1.148797e-05
3.663943e+03 1.135348e-05
3.664844e+03 1.129718e-05
3.665744e+03 1.137717e-05
3.666644e+03 1.142935e-05
3.667544e+03 1.141898e-05
3.668445e+03 1.139849e-05
3.669345e+03 1.129453e-05
3.670245e+03 1.117845e-05
3.671145e+03 1.123441e-05
3.672046e+03 1.141036e-05
3.672946e+03 1.154303e-05
3.673846e+03 1.156095e-05
3.674746e+03 1.150353e-05
3.675646e+03 1.152471e-05
3.676547e+03 1.150912e-05
3.677447e+03 1.133568e-05
3.678347e+03 1.117021e-05
3.679247e+03 1.109582e-05
3.680148e+03 1.106513e-05
3.681048e+03 1.109396e-05
3.681948e+03 1.119081e-05
3.682848e+03 1.127316e-05
3.683749e+03 1.133740e-05
3.684649e+03 1.140345e-05
3.685549e+03 1.130168e-05
3.686449e+03 1.108412e-05
3.687349e+03 1.091118e-05
3.688250e+03 1.091693e-05
3.689150e+03 1.120402e-05
3.690050e+03 1.152351e-05
3.690950e+03 1.162343e-05
3.691851e+03 1.160236e-05
3.692751e+03 1.163364e-05
3.693651e+03 1.171939e-05
3.694551e+03 1.176911e-05
3.695451e+03 1.177203e-05
3.696352e+03 1.164623e-05
3.697252e+03 1.139312e-05
3.698152e+03 1.129037e-05
3.699052e+03 1.159884e-05
3.699953e+03 1.213061e-05
3.700853e+03 1.246115e-05
3.701753e+03 1.240769e-05
3.702653e+03 1.204427e-05
3.703554e+03 1.147732e-05
3.704454e+03 1.088383e-05
3.705354e+03 1.056863e-05
3.706254e+03 1.072253e-05
3.707155e+03 1.124523e-05
3.708055e+03 1.176651e-05
3.708955e+03 1.195679e-05
3.709855e+03 1.179180e-05
3.710755e+03 1.147420e-05
3.711656e+03 1.111106e-05
3.712556e+03 1.086122e-05
3.713456e+03 1.106207e-05
3.714356e+03 1.173425e-05
3.715257e+03 1.243181e-05
3.716157e+03 1.284299e-05
3.717057e+03 1.308793e-05
3.717957e+03 1.319323e-05
3.718858e+03 1.292270e-05
3.719758e+03 1.224085e-05
3.720658e+03 1.139885e-05
3.721558e+03 1.083892e-05
3.722458e+03 1.105751e-05
3.723359e+03 1.142272e-05
3.724259e+03 1.339465e-05
3.725159e+03 2.982615e-05
3.726059e+03 9.826419e-05
3.726960e+03 1.767804e-04
3.727860e+03 1.477707e-04
3.728760e+03 1.490588e-04
3.729660e+03 2.319602e-04
3.730561e+03 1.778007e-04
3.731461e+03 6.092305e-05
3.732361e+03 1.931285e-05
3.733261e+03 1.308801e-05
3.734162e+03 1.098496e-05
3.735062e+03 9.788220e-06
3.735962e+03 9.875643e-06
3.736862e+03 1.052136e-05
3.737762e+03 1.136096e-05
3.738663e+03 1.231552e-05
3.739563e+03 1.329383e-05
3.740463e+03 1.406261e-05
3.741363e+03 1.452884e-05
3.742264e+03 1.467102e-05
3.743164e+03 1.450267e-05
3.744064e+03 1.419367e-05
3.744964e+03 1.392423e-05
3.745865e+03 1.352894e-05
3.746765e+03 1.298299e-05
3.747665e+03 1.239742e-05
3.748565e+03 1.163600e-05
3.749465e+03 1.062658e-05
3.750366e+03 9.875535e-06
3.751266e+03 9.919632e-06
3.752166e+03 1.071169e-05
3.753066e+03 1.180048e-05
3.753967e+03 1.278461e-05
3.754867e+03 1.367776e-05
3.755767e+03 1.446362e-05
3.756668e+03 1.497379e-05
3.757568e+03 1.500381e-05
3.758468e+03 1.469246e-05
3.759368e+03 1.451439e-05
3.760268e+03 1.468521e-05
3.761169e+03 1.496405e-05
3.762069e+03 1.512258e-05
3.762969e+03 1.520050e-05
3.763869e+03 1.513615e-05
3.764769e+03 1.494913e-05
3.765670e+03 1.477697e-05
3.766570e+03 1.441122e-05
3.767470e+03 1.369025e-05
3.768370e+03 1.294723e-05
3.769271e+03 1.231458e-05
3.770171e+03 1.156718e-05
3.771071e+03 1.085671e-05
3.771971e+03 1.081560e-05
3.772872e+03 1.162180e-05
3.773772e+03 1.272534e-05
3.774672e+03 1.361033e-05
3.775572e+03 1.425758e-05
3.776472e+03 1.484510e-05
3.777373e+03 1.546224e-05
3.778273e+03 1.599924e-05
3.779173e+03 1.640969e-05
3.780073e+03 1.686477e-05
3.780974e+03 1.732746e-05
3.781874e+03 1.760962e-05
3.782774e+03 1.769356e-05
3.783675e+03 1.773119e-05
3.784575e+03 1.786228e-05
3.785475e+03 1.791684e-05
3.786375e+03 1.759366e-05
3.787275e+03 1.707457e-05
3.788176e+03 1.676091e-05
3.789076e+03 1.659887e-05
3.789976e+03 1.639438e-05
3.790876e+03 1.618606e-05
3.791776e+03 1.603294e-05
3.792677e+03 1.577444e-05
3.793577e+03 1.524662e-05
3.794477e+03 1.449363e-05
3.795378e+03 1.365130e-05
3.796278e+03 1.289634e-05
3.797178e+03 1.301016e-05
3.798078e+03 1.597647e-05
3.798978e+03 1.886897e-05
3.799879e+03 1.613541e-05
3.800779e+03 1.335968e-05
3.801679e+03 1.357504e-05
3.802579e+03 1.451914e-05
3.803479e+03 1.542989e-05
3.804380e+03 1.622007e-05
3.805280e+03 1.673993e-05
3.806180e+03 1.699452e-05
3.807081e+03 1.707978e-05
3.807981e+03 1.725941e-05
3.808881e+03 1.774772e-05
3.809781e+03 1.839115e-05
3.810682e+03 1.890756e-05
3.811582e+03 1.918319e-05
3.812482e+03 1.917579e-05
3.813382e+03 1.886534e-05
3.814282e+03 1.845105e-05
3.815183e+03 1.820930e-05
3.816083e+03 1.817329e-05
3.816983e+03 1.830328e-05
3.817883e+03 1.854818e-05
3.818784e+03 1.856643e-05
3.819684e+03 1.806466e-05
3.820584e+03 1.739420e-05
3.821484e+03 1.723331e-05
3.822385e+03 1.774500e-05
3.823285e+03 1.828540e-05
3.824185e+03 1.824805e-05
3.825085e+03 1.769866e-05
3.825985e+03 1.719194e-05
3.826886e+03 1.693277e-05
3.827786e+03 1.672079e-05
3.828686e+03 1.641061e-05
3.829586e+03 1.603393e-05
3.830486e+03 1.564268e-05
3.831387e+03 1.516841e-05
3.832287e+03 1.442882e-05
3.833187e+03 1.344162e-05
3.834088e+03 1.271979e-05
3.834988e+03 1.438195e-05
3.835888e+03 2.032189e-05
3.836788e+03 2.216669e-05
3.837689e+03 1.655536e-05
3.838589e+03 1.336153e-05
3.839489e+03 1.348794e-05
3.840389e+03 1.427602e-05
3.841289e+03 1.508057e-05
3.842190e+03 1.595889e-05
3.843090e+03 1.685565e-05
3.843990e+03 1.753446e-05
3.844890e+03 1.797623e-05
3.845791e+03 1.829851e-05
3.846691e+03 1.859322e-05
3.847591e+03 1.896482e-05
3.848491e+03 1.937333e-05
3.849392e+03 1.954787e-05
3.850292e+03 1.945833e-05
3.851192e+03 1.956148e-05
3.852092e+03 2.002193e-05
3.852992e+03 2.039676e-05
3.853893e+03 2.044704e-05
3.854793e+03 2.035460e-05
3.855693e+03 2.017569e-05
3.856593e+03 1.995615e-05
3.857494e+03 2.009732e-05
3.858394e+03 2.049077e-05
3.859294e+03 2.053476e-05
3.860194e+03 2.033130e-05
3.861095e+03 2.040484e-05
3.861995e+03 2.072388e-05
3.862895e+03 2.095107e-05
3.863795e+03 2.106405e-05
3.864696e+03 2.117919e-05
3.865596e+03 2.120741e-05
3.866496e+03 2.111460e-05
3.867396e+03 2.123497e-05
3.868296e+03 2.313489e-05
3.869197e+03 2.843161e-05
3.870097e+03 3.045765e-05
3.870997e+03 2.537351e-05
3.871897e+03 2.136664e-05
3.872798e+03 2.010575e-05
3.873698e+03 1.976049e-05
3.874598e+03 1.995922e-05
3.875498e+03 2.033023e-05
3.876398e+03 2.044769e-05
3.877299e+03 2.015262e-05
3.878199e+03 1.950738e-05
3.879099e+03 1.881811e-05
3.879999e+03 1.860723e-05
3.880900e+03 1.874649e-05
3.881800e+03 1.856784e-05
3.882700e+03 1.792880e-05
3.883600e+03 1.729898e-05
3.884501e+03 1.691240e-05
3.885401e+03 1.637665e-05
3.886301e+03 1.535372e-05
3.887201e+03 1.441169e-05
3.888102e+03 1.653771e-05
3.889002e+03 2.826141e-05
3.889902e+03 4.046443e-05
3.890802e+03 3.190665e-05
3.891703e+03 1.834802e-05
3.892603e+03 1.493996e-05
3.893503e+03 1.556629e-05
3.894403e+03 1.636026e-05
3.895303e+03 1.695593e-05
3.896204e+03 1.746540e-05
3.897104e+03 1.807271e-05
3.898004e+03 1.871054e-05
3.898904e+03 1.910816e-05
3.899805e+03 1.928538e-05
3.900705e+03 1.952020e-05
3.901605e+03 2.005462e-05
3.902505e+03 2.064704e-05
3.903406e+03 2.085259e-05
3.904306e+03 2.087390e-05
3.905206e+03 2.097372e-05
3.906106e+03 2.093734e-05
3.907006e+03 2.091453e-05
3.907907e+03 2.129213e-05
3.908807e+03 2.190364e-05
3.909707e+03 2.239347e-05
3.910607e+03 2.268621e-05
3.911508e+03 2.284422e-05
3.912408e+03 2.289334e-05
3.913308e+03 2.277023e-05
3.914208e+03 2.249890e-05
3.915109e+03 2.241300e-05
3.916009e+03 2.255603e-05
3.916909e+03 2.256148e-05
3.917809e+03 2.242614e-05
3.918710e+03 2.229460e-05
3.919610e+03 2.208780e-05
3.920510e+03 2.184006e-05
3.921410e+03 2.172332e-05
3.922310e+03 2.185814e-05
3.923211e+03 2.207783e-05
3.924111e+03 2.221637e-05
3.925011e+03 2.224624e-05
3.925911e+03 2.203188e-05
3.926812e+03 2.161743e-05
3.927712e+03 2.124659e-05
3.928612e+03 2.095638e-05
3.929512e+03 2.068824e-05
3.930413e+03 2.036591e-05
3.931313e+03 1.990731e-05
3.932213e+03 1.921179e-05
3.933113e+03 1.809200e-05
3.934013e+03 1.684490e-05
3.934914e+03 1.648355e-05
3.935814e+03 1.742877e-05
3.936714e+03 1.885609e-05
3.937614e+03 1.994795e-05
3.938515e+03 2.063154e-05
3.939415e+03 2.115035e-05
3.940315e+03 2.167750e-05
3.941215e+03 2.205887e-05
3.942116e+03 2.217026e-05
3.943016e+03 2.213017e-05
3.943916e+03 2.197833e-05
3.944816e+03 2.180176e-05
