# wave flux
# 
# Av = 0.7183095628183576
# mass = 2.9193932789253303
# Lv = 0.4962972085692835
# sfr = 1.808574400611088e-12
# line_EW_Ha = 0.6087435649466469
# line_C_Ha = 6.420204167389767e-05
# line_flux_Ha = 4.0319496168650394e-05
# line_EW_O3 = 0.10590020929571368
# line_C_O3 = 7.097843327047903e-05
# line_flux_O3 = 7.681221094642435e-06
# line_EW_Hb = 0.15222758692399985
# line_C_Hb = 5.380246319241242e-05
# line_flux_Hb = 8.415029518191119e-06
# line_EW_O2 = 0.8138512604083538
# line_C_O2 = 2.366419200216024e-05
# line_flux_O2 = 1.939093288051832e-05
# line_EW_Lya = 18.639033443482848
# line_C_Lya = 6.650446292313349e-07
# line_flux_Lya = 1.4078432611218448e-05
# 
9.100000e+01 8.453035e-15
9.400000e+01 9.019571e-15
9.600000e+01 9.407470e-15
9.800000e+01 9.803536e-15
1.000000e+02 1.020777e-14
1.020000e+02 1.062017e-14
1.040000e+02 1.104073e-14
1.060000e+02 1.146947e-14
1.080000e+02 1.190637e-14
1.100000e+02 1.235143e-14
1.140000e+02 1.326606e-14
1.180000e+02 1.421337e-14
1.210000e+02 1.494528e-14
1.250000e+02 1.594975e-14
1.270000e+02 1.646423e-14
1.280000e+02 1.672454e-14
1.310000e+02 1.751771e-14
1.320000e+02 1.778618e-14
1.340000e+02 1.832925e-14
1.370000e+02 1.915917e-14
1.400000e+02 2.000746e-14
1.430000e+02 2.087413e-14
1.470000e+02 2.205828e-14
1.510000e+02 2.327510e-14
1.550000e+02 2.452459e-14
1.590000e+02 2.580675e-14
1.620000e+02 2.678980e-14
1.660000e+02 2.812914e-14
1.700000e+02 2.950114e-14
1.730000e+02 3.055158e-14
1.770000e+02 3.198077e-14
1.800000e+02 3.307414e-14
1.820000e+02 3.381333e-14
1.860000e+02 3.531651e-14
1.910000e+02 3.724537e-14
1.940000e+02 3.843439e-14
1.980000e+02 4.008213e-14
2.020000e+02 4.182719e-14
2.050000e+02 4.328942e-14
2.100000e+02 4.640293e-14
2.160000e+02 5.260893e-14
2.200000e+02 5.758234e-14
2.230000e+02 6.753962e-14
2.270000e+02 1.133899e-13
2.300000e+02 1.642806e-13
2.340000e+02 3.517538e-13
2.400000e+02 1.123555e-12
2.460000e+02 2.425271e-12
2.520000e+02 6.868739e-12
2.570000e+02 9.495598e-12
2.600000e+02 1.160501e-11
2.640000e+02 2.376904e-11
2.690000e+02 2.926620e-11
2.740000e+02 6.065160e-11
2.790000e+02 5.958088e-11
2.840000e+02 9.006218e-11
2.900000e+02 1.100627e-10
2.960000e+02 1.642137e-10
3.010000e+02 2.066064e-10
3.080000e+02 2.449969e-10
3.180000e+02 4.091013e-10
3.280000e+02 7.907978e-10
3.380000e+02 6.542114e-10
3.480000e+02 9.615121e-10
3.570000e+02 9.387583e-10
3.660000e+02 1.661565e-09
3.750000e+02 1.822458e-09
3.850000e+02 1.865008e-09
3.950000e+02 2.184786e-09
4.050000e+02 3.730203e-09
4.140000e+02 4.116070e-09
4.220000e+02 3.720799e-09
4.300000e+02 3.681059e-09
4.410000e+02 3.249249e-09
4.510000e+02 5.356781e-09
4.600000e+02 4.560645e-09
4.700000e+02 7.350934e-09
4.800000e+02 5.853363e-09
4.900000e+02 8.046181e-09
5.000000e+02 1.035698e-08
5.060000e+02 7.299153e-09
5.120000e+02 1.269373e-08
5.200000e+02 1.048905e-08
5.300000e+02 1.256765e-08
5.400000e+02 3.966500e-09
5.500000e+02 4.380446e-09
5.600000e+02 1.412284e-08
5.700000e+02 1.522633e-08
5.800000e+02 1.353474e-08
5.900000e+02 2.001838e-08
6.000000e+02 1.599948e-08
6.100000e+02 2.028993e-08
6.200000e+02 1.838407e-08
6.300000e+02 1.782154e-08
6.400000e+02 2.274045e-08
6.500000e+02 2.602795e-08
6.580000e+02 2.322699e-08
6.650000e+02 2.372218e-08
6.750000e+02 3.039353e-08
6.850000e+02 3.021533e-08
6.950000e+02 3.367404e-08
7.050000e+02 3.580175e-08
7.160000e+02 4.320645e-08
7.260000e+02 4.304156e-08
7.350000e+02 4.634255e-08
7.450000e+02 4.484909e-08
7.550000e+02 4.346512e-08
7.650000e+02 4.701410e-08
7.750000e+02 5.363870e-08
7.850000e+02 3.379646e-08
7.950000e+02 5.943002e-08
8.050000e+02 6.570157e-08
8.150000e+02 6.622577e-08
8.250000e+02 6.938928e-08
8.350000e+02 5.917839e-08
8.450000e+02 6.840804e-08
8.550000e+02 7.093826e-08
8.650000e+02 7.713575e-08
8.750000e+02 8.271732e-08
8.850000e+02 8.641964e-08
8.950000e+02 8.906426e-08
9.050000e+02 9.168178e-08
9.150000e+02 1.915651e-07
9.250000e+02 3.001719e-07
9.350000e+02 4.900304e-07
9.450000e+02 5.783663e-07
9.550000e+02 6.110621e-07
9.650000e+02 6.051360e-07
9.750000e+02 2.606705e-07
9.850000e+02 3.949840e-07
9.950000e+02 5.296158e-07
1.005000e+03 6.927106e-07
1.015000e+03 7.388015e-07
1.025000e+03 5.797659e-07
1.035000e+03 6.502193e-07
1.045000e+03 9.402223e-07
1.055000e+03 9.002112e-07
1.065000e+03 7.788032e-07
1.075000e+03 8.625996e-07
1.085000e+03 7.322318e-07
1.095000e+03 9.424066e-07
1.105000e+03 8.988705e-07
1.115000e+03 8.588046e-07
1.125000e+03 7.305570e-07
1.135000e+03 9.634344e-07
1.145000e+03 9.263269e-07
1.155000e+03 9.181542e-07
1.165000e+03 9.032036e-07
1.175000e+03 5.787384e-07
1.185000e+03 8.938233e-07
1.195000e+03 8.486934e-07
1.205000e+03 6.881023e-07
1.215000e+03 6.650461e-07
1.225000e+03 8.610871e-07
1.235000e+03 9.262720e-07
1.245000e+03 9.918533e-07
1.255000e+03 9.635869e-07
1.265000e+03 9.902564e-07
1.275000e+03 1.054874e-06
1.285000e+03 1.048060e-06
1.295000e+03 9.124753e-07
1.305000e+03 9.568386e-07
1.315000e+03 1.064177e-06
1.325000e+03 1.018432e-06
1.335000e+03 9.898876e-07
1.345000e+03 1.034776e-06
1.355000e+03 1.028441e-06
1.365000e+03 9.668736e-07
1.375000e+03 9.684335e-07
1.385000e+03 9.142155e-07
1.395000e+03 6.891711e-07
1.405000e+03 7.971107e-07
1.415000e+03 9.012359e-07
1.425000e+03 8.812642e-07
1.435000e+03 9.205404e-07
1.442000e+03 9.450849e-07
1.447000e+03 9.348627e-07
1.455000e+03 9.185910e-07
1.465000e+03 8.644103e-07
1.475000e+03 8.926265e-07
1.485000e+03 9.003053e-07
1.495000e+03 8.967928e-07
1.505000e+03 8.416193e-07
1.512000e+03 7.615960e-07
1.517000e+03 7.852162e-07
1.525000e+03 7.986333e-07
1.535000e+03 6.757634e-07
1.545000e+03 6.121305e-07
1.555000e+03 7.096945e-07
1.565000e+03 7.140149e-07
1.575000e+03 7.742661e-07
1.585000e+03 7.866967e-07
1.595000e+03 8.093819e-07
1.605000e+03 8.000214e-07
1.615000e+03 8.008944e-07
1.625000e+03 7.762923e-07
1.635000e+03 8.227161e-07
1.645000e+03 8.398349e-07
1.655000e+03 8.053426e-07
1.665000e+03 8.498845e-07
1.672000e+03 7.833361e-07
1.677000e+03 8.991833e-07
1.685000e+03 9.019699e-07
1.695000e+03 8.487000e-07
1.705000e+03 8.330766e-07
1.715000e+03 7.965549e-07
1.725000e+03 8.113011e-07
1.735000e+03 8.713784e-07
1.745000e+03 8.461928e-07
1.755000e+03 8.876977e-07
1.765000e+03 8.479911e-07
1.775000e+03 8.362826e-07
1.785000e+03 8.555161e-07
1.795000e+03 9.172336e-07
1.805000e+03 9.053099e-07
1.815000e+03 8.428036e-07
1.825000e+03 8.568218e-07
1.835000e+03 8.447033e-07
1.845000e+03 7.662456e-07
1.855000e+03 8.047185e-07
1.865000e+03 8.427057e-07
1.875000e+03 8.607082e-07
1.885000e+03 8.036292e-07
1.895000e+03 7.968925e-07
1.905000e+03 8.347748e-07
1.915000e+03 8.154654e-07
1.925000e+03 7.731232e-07
1.935000e+03 7.486837e-07
1.945000e+03 8.615699e-07
1.955000e+03 8.004558e-07
1.967000e+03 8.975780e-07
1.976000e+03 8.939770e-07
1.984000e+03 8.758481e-07
1.995000e+03 8.630467e-07
2.005000e+03 8.545215e-07
2.015000e+03 8.510424e-07
2.025000e+03 8.315926e-07
2.035000e+03 8.397491e-07
2.045000e+03 8.806763e-07
2.055000e+03 8.402524e-07
2.065000e+03 8.320280e-07
2.074000e+03 9.093284e-07
2.078000e+03 1.040258e-06
2.085000e+03 1.136669e-06
2.095000e+03 1.064263e-06
2.105000e+03 1.036961e-06
2.115000e+03 1.091837e-06
2.125000e+03 1.044964e-06
2.135000e+03 9.821230e-07
2.145000e+03 1.099421e-06
2.155000e+03 1.114987e-06
2.165000e+03 1.035337e-06
2.175000e+03 1.042759e-06
2.185000e+03 1.168251e-06
2.195000e+03 1.195986e-06
2.205000e+03 1.178577e-06
2.215000e+03 1.026485e-06
2.225000e+03 1.107685e-06
2.235000e+03 1.338663e-06
2.245000e+03 1.303912e-06
2.255000e+03 1.120157e-06
2.265000e+03 1.102896e-06
2.275000e+03 1.190794e-06
2.285000e+03 1.440695e-06
2.295000e+03 1.266271e-06
2.305000e+03 1.468796e-06
2.315000e+03 1.337506e-06
2.325000e+03 1.102017e-06
2.335000e+03 1.105894e-06
2.345000e+03 9.178764e-07
2.355000e+03 1.337596e-06
2.365000e+03 9.871856e-07
2.375000e+03 1.160630e-06
2.385000e+03 8.820142e-07
2.395000e+03 1.011192e-06
2.405000e+03 1.015575e-06
2.415000e+03 1.117964e-06
2.425000e+03 1.586928e-06
2.435000e+03 1.598270e-06
2.445000e+03 1.841169e-06
2.455000e+03 1.936104e-06
2.465000e+03 1.755899e-06
2.475000e+03 1.608286e-06
2.485000e+03 1.245614e-06
2.495000e+03 1.316194e-06
2.505000e+03 1.891130e-06
2.513000e+03 1.125127e-06
2.518000e+03 9.999517e-07
2.525000e+03 1.045434e-06
2.535000e+03 1.385749e-06
2.545000e+03 1.451939e-06
2.555000e+03 2.275126e-06
2.565000e+03 1.821925e-06
2.575000e+03 2.243263e-06
2.585000e+03 2.061909e-06
2.595000e+03 1.911077e-06
2.605000e+03 1.723270e-06
2.615000e+03 1.592920e-06
2.625000e+03 2.070490e-06
2.635000e+03 3.223032e-06
2.645000e+03 4.235996e-06
2.655000e+03 5.763430e-06
2.665000e+03 3.786660e-06
2.675000e+03 4.293967e-06
2.685000e+03 4.932458e-06
2.695000e+03 3.694704e-06
2.705000e+03 4.528754e-06
2.715000e+03 3.410599e-06
2.725000e+03 2.846417e-06
2.735000e+03 3.520339e-06
2.745000e+03 2.159471e-06
2.755000e+03 2.803377e-06
2.765000e+03 3.561951e-06
2.775000e+03 3.844268e-06
2.785000e+03 2.485438e-06
2.795000e+03 1.259995e-06
2.805000e+03 1.490343e-06
2.815000e+03 3.524937e-06
2.825000e+03 4.957668e-06
2.835000e+03 4.681305e-06
2.845000e+03 3.604188e-06
2.855000e+03 2.401524e-06
2.865000e+03 4.773547e-06
2.875000e+03 6.257427e-06
2.885000e+03 5.828132e-06
2.895000e+03 7.056750e-06
2.910000e+03 9.576763e-06
2.930000e+03 8.441131e-06
2.950000e+03 7.864904e-06
2.970000e+03 8.299061e-06
2.990000e+03 8.502903e-06
3.010000e+03 8.594697e-06
3.030000e+03 9.255083e-06
3.050000e+03 9.722095e-06
3.070000e+03 1.076962e-05
3.090000e+03 1.062341e-05
3.110000e+03 1.238399e-05
3.130000e+03 1.155152e-05
3.150000e+03 1.175734e-05
3.170000e+03 1.299491e-05
3.190000e+03 1.133151e-05
3.210000e+03 1.259348e-05
3.230000e+03 1.078751e-05
3.250000e+03 1.508867e-05
3.270000e+03 1.769439e-05
3.290000e+03 1.753570e-05
3.310000e+03 1.654370e-05
3.330000e+03 1.714728e-05
3.350000e+03 1.667133e-05
3.370000e+03 1.280357e-05
3.390000e+03 1.451922e-05
3.410000e+03 1.496855e-05
3.430000e+03 1.588651e-05
3.450000e+03 1.671853e-05
3.470000e+03 1.737956e-05
3.490000e+03 1.960292e-05
3.510000e+03 2.103835e-05
3.530000e+03 1.905335e-05
3.550000e+03 2.202201e-05
3.570000e+03 1.549985e-05
3.590000e+03 1.595805e-05
3.601827e+03 2.507132e-05
3.602727e+03 2.261961e-05
3.603628e+03 1.986736e-05
3.604528e+03 1.850694e-05
3.605428e+03 1.782504e-05
3.606329e+03 1.745570e-05
3.607229e+03 1.810986e-05
3.608129e+03 1.844093e-05
3.609029e+03 1.676152e-05
3.609929e+03 1.473094e-05
3.610830e+03 1.484716e-05
3.611730e+03 1.704776e-05
3.612630e+03 1.914257e-05
3.613530e+03 1.932977e-05
3.614430e+03 1.889154e-05
3.615331e+03 2.014817e-05
3.616231e+03 2.212773e-05
3.617131e+03 2.246961e-05
3.618032e+03 1.994342e-05
3.618932e+03 1.581233e-05
3.619832e+03 1.334481e-05
3.620732e+03 1.433875e-05
3.621633e+03 1.713717e-05
3.622533e+03 1.989839e-05
3.623433e+03 2.175582e-05
3.624333e+03 2.185114e-05
3.625233e+03 2.167868e-05
3.626134e+03 2.348050e-05
3.627034e+03 2.620419e-05
3.627934e+03 2.738852e-05
3.628834e+03 2.695678e-05
3.629735e+03 2.566158e-05
3.630635e+03 2.252468e-05
3.631535e+03 1.765678e-05
3.632435e+03 1.470265e-05
3.633336e+03 1.561479e-05
3.634236e+03 1.772884e-05
3.635136e+03 1.861823e-05
3.636036e+03 1.912622e-05
3.636936e+03 2.027414e-05
3.637837e+03 2.149056e-05
3.638737e+03 2.273144e-05
3.639637e+03 2.430635e-05
3.640537e+03 2.548355e-05
3.641438e+03 2.552070e-05
3.642338e+03 2.457778e-05
3.643238e+03 2.322901e-05
3.644138e+03 2.196098e-05
3.645039e+03 2.060792e-05
3.645939e+03 1.959292e-05
3.646839e+03 1.935151e-05
3.647739e+03 1.868066e-05
3.648640e+03 1.732866e-05
3.649540e+03 1.715594e-05
3.650440e+03 1.845352e-05
3.651340e+03 2.019068e-05
3.652240e+03 2.209937e-05
3.653141e+03 2.417382e-05
3.654041e+03 2.548448e-05
3.654941e+03 2.563655e-05
3.655841e+03 2.552245e-05
3.656742e+03 2.603928e-05
3.657642e+03 2.704891e-05
3.658542e+03 2.798202e-05
3.659442e+03 2.872912e-05
3.660343e+03 2.883180e-05
3.661243e+03 2.837240e-05
3.662143e+03 2.801271e-05
3.663043e+03 2.717443e-05
3.663943e+03 2.568823e-05
3.664844e+03 2.489940e-05
3.665744e+03 2.569468e-05
3.666644e+03 2.655164e-05
3.667544e+03 2.633077e-05
3.668445e+03 2.580373e-05
3.669345e+03 2.462042e-05
3.670245e+03 2.294466e-05
3.671145e+03 2.303032e-05
3.672046e+03 2.545261e-05
3.672946e+03 2.771509e-05
3.673846e+03 2.772629e-05
3.674746e+03 2.687110e-05
3.675646e+03 2.709484e-05
3.676547e+03 2.726740e-05
3.677447e+03 2.553244e-05
3.678347e+03 2.324609e-05
3.679247e+03 2.215513e-05
3.680148e+03 2.134412e-05
3.681048e+03 2.078333e-05
3.681948e+03 2.177577e-05
3.682848e+03 2.346323e-05
3.683749e+03 2.461093e-05
3.684649e+03 2.504822e-05
3.685549e+03 2.422859e-05
3.686449e+03 2.227331e-05
3.687349e+03 2.018612e-05
3.688250e+03 1.900271e-05
3.689150e+03 1.975171e-05
3.690050e+03 2.227801e-05
3.690950e+03 2.539474e-05
3.691851e+03 2.828402e-05
3.692751e+03 2.954632e-05
3.693651e+03 2.811983e-05
3.694551e+03 2.575682e-05
3.695451e+03 2.503456e-05
3.696352e+03 2.548015e-05
3.697252e+03 2.558354e-05
3.698152e+03 2.607632e-05
3.699052e+03 2.795115e-05
3.699953e+03 3.030975e-05
3.700853e+03 3.130889e-05
3.701753e+03 3.049514e-05
3.702653e+03 2.906543e-05
3.703554e+03 2.712197e-05
3.704454e+03 2.394843e-05
3.705354e+03 2.042443e-05
3.706254e+03 1.842144e-05
3.707155e+03 1.865812e-05
3.708055e+03 1.969953e-05
3.708955e+03 1.982148e-05
3.709855e+03 1.967920e-05
3.710755e+03 2.107368e-05
3.711656e+03 2.381064e-05
3.712556e+03 2.633547e-05
3.713456e+03 2.870244e-05
3.714356e+03 3.116627e-05
3.715257e+03 3.223625e-05
3.716157e+03 3.100777e-05
3.717057e+03 2.928527e-05
3.717957e+03 2.813586e-05
3.718858e+03 2.577311e-05
3.719758e+03 2.121568e-05
3.720658e+03 1.665569e-05
3.721558e+03 1.429561e-05
3.722458e+03 1.422743e-05
3.723359e+03 1.619753e-05
3.724259e+03 1.990009e-05
3.725159e+03 2.386240e-05
3.726059e+03 2.682262e-05
3.726960e+03 2.708199e-05
3.727860e+03 2.414088e-05
3.728760e+03 2.234126e-05
3.729660e+03 2.430022e-05
3.730561e+03 2.609565e-05
3.731461e+03 2.502743e-05
3.732361e+03 2.276288e-05
3.733261e+03 1.996928e-05
3.734162e+03 1.633894e-05
3.735062e+03 1.322855e-05
3.735962e+03 1.223150e-05
3.736862e+03 1.295077e-05
3.737762e+03 1.435771e-05
3.738663e+03 1.697703e-05
3.739563e+03 2.071120e-05
3.740463e+03 2.426513e-05
3.741363e+03 2.674653e-05
3.742264e+03 2.705698e-05
3.743164e+03 2.491819e-05
3.744064e+03 2.194600e-05
3.744964e+03 1.989895e-05
3.745865e+03 1.838581e-05
3.746765e+03 1.712329e-05
3.747665e+03 1.690460e-05
3.748565e+03 1.600722e-05
3.749465e+03 1.351240e-05
3.750366e+03 1.237523e-05
3.751266e+03 1.495013e-05
3.752166e+03 1.957029e-05
3.753066e+03 2.319678e-05
3.753967e+03 2.536473e-05
3.754867e+03 2.782314e-05
3.755767e+03 3.058502e-05
3.756668e+03 3.123410e-05
3.757568e+03 2.785041e-05
3.758468e+03 2.205244e-05
3.759368e+03 1.849443e-05
3.760268e+03 1.942158e-05
3.761169e+03 2.238615e-05
3.762069e+03 2.429662e-05
3.762969e+03 2.469814e-05
3.763869e+03 2.368923e-05
3.764769e+03 2.286929e-05
3.765670e+03 2.387247e-05
3.766570e+03 2.435556e-05
3.767470e+03 2.249120e-05
3.768370e+03 2.124358e-05
3.769271e+03 2.275396e-05
3.770171e+03 2.438023e-05
3.771071e+03 2.409946e-05
3.771971e+03 2.434091e-05
3.772872e+03 2.667865e-05
3.773772e+03 2.911829e-05
3.774672e+03 2.973299e-05
3.775572e+03 2.906956e-05
3.776472e+03 2.867637e-05
3.777373e+03 2.915335e-05
3.778273e+03 2.968683e-05
3.779173e+03 2.994622e-05
3.780073e+03 3.109385e-05
3.780974e+03 3.291551e-05
3.781874e+03 3.367703e-05
3.782774e+03 3.330318e-05
3.783675e+03 3.330624e-05
3.784575e+03 3.430029e-05
3.785475e+03 3.443988e-05
3.786375e+03 3.137825e-05
3.787275e+03 2.700148e-05
3.788176e+03 2.485025e-05
3.789076e+03 2.426049e-05
3.789976e+03 2.357932e-05
3.790876e+03 2.362148e-05
3.791776e+03 2.531739e-05
3.792677e+03 2.686266e-05
3.793577e+03 2.615879e-05
3.794477e+03 2.396617e-05
3.795378e+03 2.205495e-05
3.796278e+03 2.140886e-05
3.797178e+03 2.137289e-05
3.798078e+03 2.003962e-05
3.798978e+03 1.798446e-05
3.799879e+03 1.793166e-05
3.800779e+03 2.078462e-05
3.801679e+03 2.441831e-05
3.802579e+03 2.689103e-05
3.803479e+03 2.899445e-05
3.804380e+03 3.097239e-05
3.805280e+03 3.171584e-05
3.806180e+03 3.092982e-05
3.807081e+03 2.886760e-05
3.807981e+03 2.699663e-05
3.808881e+03 2.754650e-05
3.809781e+03 3.008105e-05
3.810682e+03 3.231716e-05
3.811582e+03 3.316038e-05
3.812482e+03 3.242017e-05
3.813382e+03 2.986731e-05
3.814282e+03 2.648912e-05
3.815183e+03 2.396205e-05
3.816083e+03 2.227191e-05
3.816983e+03 2.203260e-05
3.817883e+03 2.421510e-05
3.818784e+03 2.644192e-05
3.819684e+03 2.554711e-05
3.820584e+03 2.190428e-05
3.821484e+03 1.939967e-05
3.822385e+03 2.083127e-05
3.823285e+03 2.385538e-05
3.824185e+03 2.419507e-05
3.825085e+03 2.138918e-05
3.825985e+03 1.851671e-05
3.826886e+03 1.751901e-05
3.827786e+03 1.789492e-05
3.828686e+03 1.841507e-05
3.829586e+03 1.881251e-05
3.830486e+03 1.953473e-05
3.831387e+03 2.012482e-05
3.832287e+03 1.908980e-05
3.833187e+03 1.665644e-05
3.834088e+03 1.487851e-05
3.834988e+03 1.447858e-05
3.835888e+03 1.538177e-05
3.836788e+03 1.712059e-05
3.837689e+03 1.807805e-05
3.838589e+03 1.733627e-05
3.839489e+03 1.633228e-05
3.840389e+03 1.637517e-05
3.841289e+03 1.719512e-05
3.842190e+03 1.945265e-05
3.843090e+03 2.310801e-05
3.843990e+03 2.589885e-05
3.844890e+03 2.701663e-05
3.845791e+03 2.718826e-05
3.846691e+03 2.699746e-05
3.847591e+03 2.748515e-05
3.848491e+03 2.868319e-05
3.849392e+03 2.854432e-05
3.850292e+03 2.635256e-05
3.851192e+03 2.500201e-05
3.852092e+03 2.664755e-05
3.852992e+03 2.890426e-05
3.853893e+03 2.906074e-05
3.854793e+03 2.787230e-05
3.855693e+03 2.663781e-05
3.856593e+03 2.543177e-05
3.857494e+03 2.500555e-05
3.858394e+03 2.510959e-05
3.859294e+03 2.359733e-05
3.860194e+03 2.106088e-05
3.861095e+03 2.056273e-05
3.861995e+03 2.318741e-05
3.862895e+03 2.719940e-05
3.863795e+03 3.003948e-05
3.864696e+03 3.054219e-05
3.865596e+03 2.948584e-05
3.866496e+03 2.832617e-05
3.867396e+03 2.811838e-05
3.868296e+03 2.846423e-05
3.869197e+03 2.851105e-05
3.870097e+03 2.785916e-05
3.870997e+03 2.633272e-05
3.871897e+03 2.423893e-05
3.872798e+03 2.251121e-05
3.873698e+03 2.254417e-05
3.874598e+03 2.518817e-05
3.875498e+03 2.887214e-05
3.876398e+03 3.078840e-05
3.877299e+03 2.980430e-05
3.878199e+03 2.647708e-05
3.879099e+03 2.317627e-05
3.879999e+03 2.328298e-05
3.880900e+03 2.569803e-05
3.881800e+03 2.611420e-05
3.882700e+03 2.411708e-05
3.883600e+03 2.350232e-05
3.884501e+03 2.591516e-05
3.885401e+03 2.740097e-05
3.886301e+03 2.468626e-05
3.887201e+03 2.080539e-05
3.888102e+03 1.955870e-05
3.889002e+03 1.990953e-05
3.889902e+03 2.037525e-05
3.890802e+03 2.240810e-05
3.891703e+03 2.613424e-05
3.892603e+03 2.958682e-05
3.893503e+03 3.128402e-05
3.894403e+03 3.126430e-05
3.895303e+03 3.024583e-05
3.896204e+03 2.910819e-05
3.897104e+03 2.977255e-05
3.898004e+03 3.178669e-05
3.898904e+03 3.206961e-05
3.899805e+03 3.061172e-05
3.900705e+03 2.988214e-05
3.901605e+03 3.148961e-05
3.902505e+03 3.330901e-05
3.903406e+03 3.236905e-05
3.904306e+03 3.070212e-05
3.905206e+03 3.019558e-05
3.906106e+03 2.890630e-05
3.907006e+03 2.781991e-05
3.907907e+03 2.974717e-05
3.908807e+03 3.339930e-05
3.909707e+03 3.595534e-05
3.910607e+03 3.665775e-05
3.911508e+03 3.680925e-05
3.912408e+03 3.767549e-05
3.913308e+03 3.833763e-05
3.914208e+03 3.773476e-05
3.915109e+03 3.699258e-05
3.916009e+03 3.678836e-05
3.916909e+03 3.596180e-05
3.917809e+03 3.494005e-05
3.918710e+03 3.443071e-05
3.919610e+03 3.339634e-05
3.920510e+03 3.130507e-05
3.921410e+03 2.900205e-05
3.922310e+03 2.810656e-05
3.923211e+03 2.876380e-05
3.924111e+03 2.998716e-05
3.925011e+03 3.115487e-05
3.925911e+03 3.086548e-05
3.926812e+03 2.901014e-05
3.927712e+03 2.667052e-05
3.928612e+03 2.372783e-05
3.929512e+03 2.059535e-05
3.930413e+03 1.804704e-05
3.931313e+03 1.571163e-05
3.932213e+03 1.338237e-05
3.933113e+03 1.108425e-05
3.934013e+03 9.178086e-06
3.934914e+03 8.551744e-06
3.935814e+03 9.629533e-06
3.936714e+03 1.203747e-05
3.937614e+03 1.508698e-05
3.938515e+03 1.822569e-05
3.939415e+03 2.149796e-05
3.940315e+03 2.473066e-05
3.941215e+03 2.681019e-05
3.942116e+03 2.746692e-05
3.943016e+03 2.755643e-05
3.943916e+03 2.684464e-05
3.944816e+03 2.572299e-05
