# wave flux
# 
# Av = 0.05985202574571176
# mass = 0.7919406557879701
# Lv = 2.0398010431722016
# sfr = 6.179750955510994e-12
# line_EW_Ha = 2.7925289127708024
# line_C_Ha = 0.0001641016434021415
# line_flux_Ha = 0.0004686680167436041
# line_EW_O3 = 0.3750754413938316
# line_C_O3 = 0.0004301883498551706
# line_flux_O3 = 0.0001623170596159048
# line_EW_Hb = 0.6350224915619033
# line_C_Hb = 0.0002413479285058596
# line_flux_Hb = 0.00015650097177077524
# line_EW_O2 = 2.083924969986896
# line_C_O2 = 0.00037134339398034954
# line_flux_O2 = 0.0007626326005599365
# line_EW_Lya = 77.62659220710056
# line_C_Lya = 2.512305008064059e-05
# line_flux_Lya = 0.002984559424679561
# 
9.100000e+01 3.986389e-15
9.400000e+01 4.253564e-15
9.600000e+01 4.436494e-15
9.800000e+01 4.623276e-15
1.000000e+02 4.813909e-15
1.020000e+02 5.008393e-15
1.040000e+02 5.206729e-15
1.060000e+02 5.408916e-15
1.080000e+02 5.614955e-15
1.100000e+02 5.824845e-15
1.140000e+02 6.256179e-15
1.180000e+02 6.702919e-15
1.210000e+02 7.048084e-15
1.250000e+02 7.521785e-15
1.270000e+02 7.764412e-15
1.280000e+02 7.887170e-15
1.310000e+02 8.261222e-15
1.320000e+02 8.387832e-15
1.340000e+02 8.643940e-15
1.370000e+02 9.035323e-15
1.400000e+02 9.435373e-15
1.430000e+02 9.844089e-15
1.470000e+02 1.040252e-14
1.510000e+02 1.097637e-14
1.550000e+02 1.156562e-14
1.590000e+02 1.217027e-14
1.620000e+02 1.263388e-14
1.660000e+02 1.326549e-14
1.700000e+02 1.391252e-14
1.730000e+02 1.440791e-14
1.770000e+02 1.508196e-14
1.800000e+02 1.559785e-14
1.820000e+02 1.594710e-14
1.860000e+02 1.665890e-14
1.910000e+02 1.759447e-14
1.940000e+02 1.821677e-14
1.980000e+02 1.925499e-14
2.020000e+02 2.063802e-14
2.050000e+02 2.242950e-14
2.100000e+02 2.891240e-14
2.160000e+02 4.802174e-14
2.200000e+02 5.643519e-14
2.230000e+02 1.049179e-13
2.270000e+02 2.185910e-13
2.300000e+02 3.392895e-13
2.340000e+02 8.342394e-13
2.400000e+02 2.061186e-12
2.460000e+02 3.816201e-12
2.520000e+02 8.555006e-12
2.570000e+02 1.249812e-11
2.600000e+02 1.703727e-11
2.640000e+02 2.814205e-11
2.690000e+02 3.517396e-11
2.740000e+02 4.983861e-11
2.790000e+02 5.775703e-11
2.840000e+02 8.596770e-11
2.900000e+02 1.181712e-10
2.960000e+02 1.325426e-10
3.010000e+02 1.863819e-10
3.080000e+02 1.997251e-10
3.180000e+02 3.585761e-10
3.280000e+02 5.599300e-10
3.380000e+02 7.356905e-10
3.480000e+02 1.219757e-09
3.570000e+02 1.873341e-09
3.660000e+02 3.124839e-09
3.750000e+02 4.450793e-09
3.850000e+02 6.746002e-09
3.950000e+02 1.071950e-08
4.050000e+02 1.520073e-08
4.140000e+02 1.955864e-08
4.220000e+02 2.505853e-08
4.300000e+02 3.114155e-08
4.410000e+02 3.893323e-08
4.510000e+02 4.913918e-08
4.600000e+02 5.804529e-08
4.700000e+02 6.793976e-08
4.800000e+02 7.847289e-08
4.900000e+02 8.896580e-08
5.000000e+02 9.980864e-08
5.060000e+02 1.116690e-07
5.120000e+02 1.226132e-07
5.200000e+02 1.314357e-07
5.300000e+02 1.463111e-07
5.400000e+02 1.473741e-07
5.500000e+02 1.582834e-07
5.600000e+02 1.799965e-07
5.700000e+02 1.908654e-07
5.800000e+02 1.938547e-07
5.900000e+02 2.099916e-07
6.000000e+02 2.144587e-07
6.100000e+02 2.089302e-07
6.200000e+02 2.332562e-07
6.300000e+02 2.389690e-07
6.400000e+02 2.393625e-07
6.500000e+02 2.500839e-07
6.580000e+02 2.550587e-07
6.650000e+02 2.634651e-07
6.750000e+02 2.729993e-07
6.850000e+02 2.865149e-07
6.950000e+02 2.787115e-07
7.050000e+02 3.030719e-07
7.160000e+02 2.936883e-07
7.260000e+02 3.053154e-07
7.350000e+02 3.106474e-07
7.450000e+02 3.150237e-07
7.550000e+02 3.232815e-07
7.650000e+02 3.157636e-07
7.750000e+02 3.352047e-07
7.850000e+02 3.063897e-07
7.950000e+02 3.555266e-07
8.050000e+02 3.565636e-07
8.150000e+02 3.569189e-07
8.250000e+02 3.719103e-07
8.350000e+02 3.814752e-07
8.450000e+02 3.855656e-07
8.550000e+02 3.826674e-07
8.650000e+02 3.978633e-07
8.750000e+02 4.078448e-07
8.850000e+02 4.205953e-07
8.950000e+02 4.300150e-07
9.050000e+02 4.579456e-07
9.150000e+02 3.375234e-05
9.250000e+02 2.927761e-05
9.350000e+02 3.728886e-05
9.450000e+02 4.084693e-05
9.550000e+02 4.986597e-05
9.650000e+02 5.720520e-05
9.750000e+02 3.235542e-05
9.850000e+02 1.137873e-04
9.950000e+02 2.056844e-04
1.005000e+03 2.075510e-04
1.015000e+03 8.627423e-05
1.025000e+03 2.973048e-05
1.035000e+03 6.629918e-05
1.045000e+03 2.380556e-04
1.055000e+03 3.988826e-04
1.065000e+03 4.329139e-04
1.075000e+03 5.141186e-04
1.085000e+03 5.119393e-04
1.095000e+03 5.325249e-04
1.105000e+03 5.671555e-04
1.115000e+03 5.619167e-04
1.125000e+03 5.565237e-04
1.135000e+03 5.784963e-04
1.145000e+03 5.368284e-04
1.155000e+03 5.128724e-04
1.165000e+03 5.050024e-04
1.175000e+03 4.243396e-04
1.185000e+03 3.254486e-04
1.195000e+03 1.541153e-04
1.205000e+03 1.299581e-04
1.215000e+03 1.433992e-04
1.225000e+03 1.287195e-04
1.235000e+03 1.833650e-04
1.245000e+03 3.240179e-04
1.255000e+03 4.301709e-04
1.265000e+03 4.035558e-04
1.275000e+03 5.538093e-04
1.285000e+03 6.244738e-04
1.295000e+03 6.249038e-04
1.305000e+03 5.913033e-04
1.315000e+03 6.681368e-04
1.325000e+03 6.761502e-04
1.335000e+03 6.673562e-04
1.345000e+03 7.145081e-04
1.355000e+03 6.858904e-04
1.365000e+03 6.632551e-04
1.375000e+03 6.836230e-04
1.385000e+03 6.969665e-04
1.395000e+03 7.031135e-04
1.405000e+03 7.038765e-04
1.415000e+03 6.783243e-04
1.425000e+03 6.833343e-04
1.435000e+03 6.594229e-04
1.442000e+03 6.870150e-04
1.447000e+03 6.953659e-04
1.455000e+03 6.920428e-04
1.465000e+03 6.716378e-04
1.475000e+03 6.659615e-04
1.485000e+03 6.667956e-04
1.495000e+03 6.672804e-04
1.505000e+03 6.711833e-04
1.512000e+03 6.585706e-04
1.517000e+03 6.696823e-04
1.525000e+03 6.387580e-04
1.535000e+03 6.211360e-04
1.545000e+03 6.540670e-04
1.555000e+03 6.298723e-04
1.565000e+03 5.925323e-04
1.575000e+03 6.122310e-04
1.585000e+03 6.306617e-04
1.595000e+03 6.453905e-04
1.605000e+03 6.158339e-04
1.615000e+03 6.174298e-04
1.625000e+03 5.836481e-04
1.635000e+03 5.934954e-04
1.645000e+03 5.985971e-04
1.655000e+03 5.487687e-04
1.665000e+03 6.003744e-04
1.672000e+03 5.550029e-04
1.677000e+03 5.784665e-04
1.685000e+03 5.974623e-04
1.695000e+03 5.745435e-04
1.705000e+03 5.651727e-04
1.715000e+03 5.666927e-04
1.725000e+03 5.583983e-04
1.735000e+03 5.754840e-04
1.745000e+03 5.611420e-04
1.755000e+03 5.774755e-04
1.765000e+03 5.381365e-04
1.775000e+03 5.687386e-04
1.785000e+03 5.601996e-04
1.795000e+03 5.734906e-04
1.805000e+03 5.686478e-04
1.815000e+03 5.622966e-04
1.825000e+03 5.507373e-04
1.835000e+03 5.442235e-04
1.845000e+03 5.268059e-04
1.855000e+03 5.306169e-04
1.865000e+03 5.300215e-04
1.875000e+03 5.368457e-04
1.885000e+03 5.323640e-04
1.895000e+03 5.292437e-04
1.905000e+03 5.270699e-04
1.915000e+03 5.223606e-04
1.925000e+03 5.209936e-04
1.935000e+03 5.081686e-04
1.945000e+03 5.240844e-04
1.955000e+03 5.170331e-04
1.967000e+03 5.216758e-04
1.976000e+03 5.134699e-04
1.984000e+03 5.092935e-04
1.995000e+03 4.988067e-04
2.005000e+03 4.921207e-04
2.015000e+03 4.809203e-04
2.025000e+03 4.802140e-04
2.035000e+03 4.848493e-04
2.045000e+03 4.875257e-04
2.055000e+03 4.726770e-04
2.065000e+03 4.704551e-04
2.074000e+03 4.788997e-04
2.078000e+03 4.803986e-04
2.085000e+03 4.797281e-04
2.095000e+03 4.694539e-04
2.105000e+03 4.653370e-04
2.115000e+03 4.636376e-04
2.125000e+03 4.621036e-04
2.135000e+03 4.410364e-04
2.145000e+03 4.555191e-04
2.155000e+03 4.513339e-04
2.165000e+03 4.363310e-04
2.175000e+03 4.342021e-04
2.185000e+03 4.358776e-04
2.195000e+03 4.491414e-04
2.205000e+03 4.353602e-04
2.215000e+03 4.200392e-04
2.225000e+03 4.158379e-04
2.235000e+03 4.384737e-04
2.245000e+03 4.221073e-04
2.255000e+03 4.111554e-04
2.265000e+03 4.080085e-04
2.275000e+03 4.214015e-04
2.285000e+03 4.261798e-04
2.295000e+03 4.120497e-04
2.305000e+03 4.149434e-04
2.315000e+03 4.101782e-04
2.325000e+03 3.713787e-04
2.335000e+03 3.984849e-04
2.345000e+03 3.742815e-04
2.355000e+03 3.996248e-04
2.365000e+03 3.754282e-04
2.375000e+03 3.890602e-04
2.385000e+03 3.599894e-04
2.395000e+03 3.791923e-04
2.405000e+03 3.706365e-04
2.415000e+03 3.746375e-04
2.425000e+03 3.890400e-04
2.435000e+03 3.778488e-04
2.445000e+03 3.887755e-04
2.455000e+03 3.847227e-04
2.465000e+03 3.797585e-04
2.475000e+03 3.706902e-04
2.485000e+03 3.770249e-04
2.495000e+03 3.692141e-04
2.505000e+03 3.897175e-04
2.513000e+03 3.697638e-04
2.518000e+03 3.665121e-04
2.525000e+03 3.531435e-04
2.535000e+03 3.525818e-04
2.545000e+03 3.535373e-04
2.555000e+03 3.692359e-04
2.565000e+03 3.650115e-04
2.575000e+03 3.768313e-04
2.585000e+03 3.767696e-04
2.595000e+03 3.720467e-04
2.605000e+03 3.624150e-04
2.615000e+03 3.567618e-04
2.625000e+03 3.668255e-04
2.635000e+03 3.724678e-04
2.645000e+03 3.970081e-04
2.655000e+03 3.985621e-04
2.665000e+03 3.817183e-04
2.675000e+03 3.894401e-04
2.685000e+03 3.910942e-04
2.695000e+03 3.778014e-04
2.705000e+03 3.803110e-04
2.715000e+03 3.674354e-04
2.725000e+03 3.669724e-04
2.735000e+03 3.773544e-04
2.745000e+03 3.448489e-04
2.755000e+03 3.507055e-04
2.765000e+03 3.628031e-04
2.775000e+03 3.733406e-04
2.785000e+03 3.632007e-04
2.795000e+03 2.979980e-04
2.805000e+03 3.181103e-04
2.815000e+03 3.748841e-04
2.825000e+03 3.780449e-04
2.835000e+03 3.712744e-04
2.845000e+03 3.629494e-04
2.855000e+03 3.511817e-04
2.865000e+03 3.684597e-04
2.875000e+03 3.667382e-04
2.885000e+03 3.687535e-04
2.895000e+03 3.669582e-04
2.910000e+03 3.806713e-04
2.930000e+03 3.716376e-04
2.950000e+03 3.682991e-04
2.970000e+03 3.692031e-04
2.990000e+03 3.690174e-04
3.010000e+03 3.697031e-04
3.030000e+03 3.671831e-04
3.050000e+03 3.655609e-04
3.070000e+03 3.621238e-04
3.090000e+03 3.610983e-04
3.110000e+03 3.570977e-04
3.130000e+03 3.533950e-04
3.150000e+03 3.520589e-04
3.170000e+03 3.515220e-04
3.190000e+03 3.408041e-04
3.210000e+03 3.446939e-04
3.230000e+03 3.369453e-04
3.250000e+03 3.425992e-04
3.270000e+03 3.461977e-04
3.290000e+03 3.445357e-04
3.310000e+03 3.434959e-04
3.330000e+03 3.391926e-04
3.350000e+03 3.350911e-04
3.370000e+03 3.275070e-04
3.390000e+03 3.288656e-04
3.410000e+03 3.287112e-04
3.430000e+03 3.300521e-04
3.450000e+03 3.278840e-04
3.470000e+03 3.256260e-04
3.490000e+03 3.253858e-04
3.510000e+03 3.268006e-04
3.530000e+03 3.227278e-04
3.550000e+03 3.269773e-04
3.570000e+03 3.166721e-04
3.590000e+03 3.135283e-04
3.601827e+03 2.898393e-04
3.602727e+03 2.904160e-04
3.603628e+03 3.125355e-04
3.604528e+03 3.122992e-04
3.605428e+03 3.006103e-04
3.606329e+03 3.183193e-04
3.607229e+03 3.322414e-04
3.608129e+03 3.181553e-04
3.609029e+03 3.006049e-04
3.609929e+03 3.032611e-04
3.610830e+03 3.005557e-04
3.611730e+03 2.922125e-04
3.612630e+03 3.096747e-04
3.613530e+03 2.865426e-04
3.614430e+03 2.831774e-04
3.615331e+03 3.064362e-04
3.616231e+03 3.256077e-04
3.617131e+03 3.253715e-04
3.618032e+03 3.227346e-04
3.618932e+03 3.156491e-04
3.619832e+03 3.037651e-04
3.620732e+03 2.994528e-04
3.621633e+03 3.055921e-04
3.622533e+03 3.210869e-04
3.623433e+03 3.260555e-04
3.624333e+03 3.123163e-04
3.625233e+03 2.977901e-04
3.626134e+03 2.990952e-04
3.627034e+03 3.139526e-04
3.627934e+03 3.298728e-04
3.628834e+03 3.273995e-04
3.629735e+03 3.001927e-04
3.630635e+03 2.853845e-04
3.631535e+03 2.856186e-04
3.632435e+03 3.004762e-04
3.633336e+03 2.808387e-04
3.634236e+03 2.940441e-04
3.635136e+03 3.145040e-04
3.636036e+03 3.163989e-04
3.636936e+03 3.127668e-04
3.637837e+03 2.912493e-04
3.638737e+03 2.853300e-04
3.639637e+03 2.905321e-04
3.640537e+03 2.947790e-04
3.641438e+03 2.917865e-04
3.642338e+03 2.889503e-04
3.643238e+03 2.866599e-04
3.644138e+03 2.847660e-04
3.645039e+03 2.863290e-04
3.645939e+03 2.880472e-04
3.646839e+03 3.041309e-04
3.647739e+03 3.073440e-04
3.648640e+03 3.106299e-04
3.649540e+03 3.169409e-04
3.650440e+03 3.108881e-04
3.651340e+03 3.085560e-04
3.652240e+03 3.134103e-04
3.653141e+03 3.161722e-04
3.654041e+03 3.206326e-04
3.654941e+03 3.316942e-04
3.655841e+03 3.408857e-04
3.656742e+03 3.259099e-04
3.657642e+03 3.185001e-04
3.658542e+03 3.247231e-04
3.659442e+03 3.309339e-04
3.660343e+03 3.198711e-04
3.661243e+03 2.901181e-04
3.662143e+03 3.114710e-04
3.663043e+03 3.234952e-04
3.663943e+03 3.103011e-04
3.664844e+03 3.055317e-04
3.665744e+03 3.004736e-04
3.666644e+03 2.919247e-04
3.667544e+03 2.990635e-04
3.668445e+03 3.177652e-04
3.669345e+03 3.131330e-04
3.670245e+03 3.130671e-04
3.671145e+03 3.199615e-04
3.672046e+03 3.120775e-04
3.672946e+03 2.998639e-04
3.673846e+03 3.177472e-04
3.674746e+03 3.010097e-04
3.675646e+03 2.967413e-04
3.676547e+03 2.955479e-04
3.677447e+03 2.981903e-04
3.678347e+03 3.243207e-04
3.679247e+03 3.303229e-04
3.680148e+03 3.159327e-04
3.681048e+03 3.039776e-04
3.681948e+03 2.918581e-04
3.682848e+03 2.898949e-04
3.683749e+03 3.061064e-04
3.684649e+03 3.169551e-04
3.685549e+03 3.095212e-04
3.686449e+03 2.920414e-04
3.687349e+03 2.839988e-04
3.688250e+03 2.844016e-04
3.689150e+03 3.103048e-04
3.690050e+03 3.376732e-04
3.690950e+03 3.260353e-04
3.691851e+03 2.967364e-04
3.692751e+03 2.888034e-04
3.693651e+03 3.097721e-04
3.694551e+03 3.250235e-04
3.695451e+03 3.251833e-04
3.696352e+03 3.130043e-04
3.697252e+03 3.000871e-04
3.698152e+03 2.977684e-04
3.699052e+03 3.061882e-04
3.699953e+03 3.272797e-04
3.700853e+03 3.439477e-04
3.701753e+03 3.393937e-04
3.702653e+03 3.186076e-04
3.703554e+03 2.952545e-04
3.704454e+03 2.790201e-04
3.705354e+03 2.793810e-04
3.706254e+03 2.971388e-04
3.707155e+03 3.177262e-04
3.708055e+03 3.348332e-04
3.708955e+03 3.427868e-04
3.709855e+03 3.325498e-04
3.710755e+03 3.126985e-04
3.711656e+03 2.922677e-04
3.712556e+03 2.792486e-04
3.713456e+03 2.887557e-04
3.714356e+03 3.112021e-04
3.715257e+03 3.411729e-04
3.716157e+03 3.644846e-04
3.717057e+03 3.718024e-04
3.717957e+03 3.776187e-04
3.718858e+03 3.669389e-04
3.719758e+03 3.417317e-04
3.720658e+03 3.175044e-04
3.721558e+03 2.893051e-04
3.722458e+03 2.646402e-04
3.723359e+03 2.639712e-04
3.724259e+03 3.069569e-04
3.725159e+03 3.860996e-04
3.726059e+03 4.598425e-04
3.726960e+03 5.010046e-04
3.727860e+03 4.827432e-04
3.728760e+03 4.910872e-04
3.729660e+03 5.337426e-04
3.730561e+03 5.077706e-04
3.731461e+03 4.388118e-04
3.732361e+03 3.875417e-04
3.733261e+03 3.424088e-04
3.734162e+03 2.895307e-04
3.735062e+03 2.551957e-04
3.735962e+03 2.595111e-04
3.736862e+03 2.832777e-04
3.737762e+03 3.096649e-04
3.738663e+03 3.426948e-04
3.739563e+03 3.786960e-04
3.740463e+03 4.045182e-04
3.741363e+03 4.150465e-04
3.742264e+03 4.167389e-04
3.743164e+03 4.088454e-04
3.744064e+03 3.975044e-04
3.744964e+03 3.959879e-04
3.745865e+03 3.874942e-04
3.746765e+03 3.710824e-04
3.747665e+03 3.599592e-04
3.748565e+03 3.370447e-04
3.749465e+03 2.967661e-04
3.750366e+03 2.677205e-04
3.751266e+03 2.750615e-04
3.752166e+03 3.072783e-04
3.753066e+03 3.389062e-04
3.753967e+03 3.599461e-04
3.754867e+03 3.867146e-04
3.755767e+03 4.119644e-04
3.756668e+03 4.251400e-04
3.757568e+03 4.323869e-04
3.758468e+03 4.264381e-04
3.759368e+03 4.189111e-04
3.760268e+03 4.250931e-04
3.761169e+03 4.330707e-04
3.762069e+03 4.353234e-04
3.762969e+03 4.451583e-04
3.763869e+03 4.506540e-04
3.764769e+03 4.405355e-04
3.765670e+03 4.311003e-04
3.766570e+03 4.175825e-04
3.767470e+03 3.921421e-04
3.768370e+03 3.735187e-04
3.769271e+03 3.570137e-04
3.770171e+03 3.285898e-04
3.771071e+03 2.963997e-04
3.771971e+03 2.802034e-04
3.772872e+03 3.168063e-04
3.773772e+03 3.609729e-04
3.774672e+03 3.881950e-04
3.775572e+03 4.027699e-04
3.776472e+03 4.182377e-04
3.777373e+03 4.375445e-04
3.778273e+03 4.602564e-04
3.779173e+03 4.763898e-04
3.780073e+03 4.905700e-04
3.780974e+03 5.037397e-04
3.781874e+03 5.128148e-04
3.782774e+03 5.184330e-04
3.783675e+03 5.198571e-04
3.784575e+03 5.224789e-04
3.785475e+03 5.233316e-04
3.786375e+03 5.146257e-04
3.787275e+03 5.043871e-04
3.788176e+03 4.971967e-04
3.789076e+03 4.890420e-04
3.789976e+03 4.856664e-04
3.790876e+03 4.804443e-04
3.791776e+03 4.711673e-04
3.792677e+03 4.652207e-04
3.793577e+03 4.552918e-04
3.794477e+03 4.311183e-04
3.795378e+03 3.992682e-04
3.796278e+03 3.778517e-04
3.797178e+03 3.553007e-04
3.798078e+03 3.273494e-04
3.798978e+03 3.170453e-04
3.799879e+03 3.324489e-04
3.800779e+03 3.676608e-04
3.801679e+03 4.072010e-04
3.802579e+03 4.349794e-04
3.803479e+03 4.598443e-04
3.804380e+03 4.861709e-04
3.805280e+03 5.023282e-04
3.806180e+03 5.100220e-04
3.807081e+03 5.131396e-04
3.807981e+03 5.214491e-04
3.808881e+03 5.351669e-04
3.809781e+03 5.489040e-04
3.810682e+03 5.633248e-04
3.811582e+03 5.726800e-04
3.812482e+03 5.682531e-04
3.813382e+03 5.553116e-04
3.814282e+03 5.436741e-04
3.815183e+03 5.404107e-04
3.816083e+03 5.444577e-04
3.816983e+03 5.538703e-04
3.817883e+03 5.642709e-04
3.818784e+03 5.672219e-04
3.819684e+03 5.572586e-04
3.820584e+03 5.411614e-04
3.821484e+03 5.344986e-04
3.822385e+03 5.374281e-04
3.823285e+03 5.413474e-04
3.824185e+03 5.342614e-04
3.825085e+03 5.155050e-04
3.825985e+03 5.012534e-04
3.826886e+03 4.940376e-04
3.827786e+03 4.815621e-04
3.828686e+03 4.640213e-04
3.829586e+03 4.477027e-04
3.830486e+03 4.345724e-04
3.831387e+03 4.219444e-04
3.832287e+03 4.002808e-04
3.833187e+03 3.711532e-04
3.834088e+03 3.455686e-04
3.834988e+03 3.197887e-04
3.835888e+03 2.979287e-04
3.836788e+03 2.938963e-04
3.837689e+03 3.264632e-04
3.838589e+03 3.595501e-04
3.839489e+03 3.909655e-04
3.840389e+03 4.187854e-04
3.841289e+03 4.371962e-04
3.842190e+03 4.555778e-04
3.843090e+03 4.751176e-04
3.843990e+03 4.994312e-04
3.844890e+03 5.245577e-04
3.845791e+03 5.382311e-04
3.846691e+03 5.494325e-04
3.847591e+03 5.614704e-04
3.848491e+03 5.736989e-04
3.849392e+03 5.842143e-04
3.850292e+03 5.850269e-04
3.851192e+03 5.897711e-04
3.852092e+03 6.008703e-04
3.852992e+03 6.072191e-04
3.853893e+03 6.158718e-04
3.854793e+03 6.192965e-04
3.855693e+03 6.178994e-04
3.856593e+03 6.125246e-04
3.857494e+03 6.113635e-04
3.858394e+03 6.144243e-04
3.859294e+03 6.165069e-04
3.860194e+03 6.135236e-04
3.861095e+03 6.101485e-04
3.861995e+03 6.215673e-04
3.862895e+03 6.348220e-04
3.863795e+03 6.401021e-04
3.864696e+03 6.425082e-04
3.865596e+03 6.404041e-04
3.866496e+03 6.358228e-04
3.867396e+03 6.352308e-04
3.868296e+03 6.417967e-04
3.869197e+03 6.495899e-04
3.870097e+03 6.504776e-04
3.870997e+03 6.401940e-04
3.871897e+03 6.237085e-04
3.872798e+03 6.075544e-04
3.873698e+03 5.929831e-04
3.874598e+03 5.852505e-04
3.875498e+03 5.840907e-04
3.876398e+03 5.861190e-04
3.877299e+03 5.769539e-04
3.878199e+03 5.558386e-04
3.879099e+03 5.336077e-04
3.879999e+03 5.217349e-04
3.880900e+03 5.179790e-04
3.881800e+03 5.105503e-04
3.882700e+03 4.904676e-04
3.883600e+03 4.669804e-04
3.884501e+03 4.507579e-04
3.885401e+03 4.333263e-04
3.886301e+03 4.035023e-04
3.887201e+03 3.703777e-04
3.888102e+03 3.364019e-04
3.889002e+03 3.052911e-04
3.889902e+03 2.876436e-04
3.890802e+03 2.977665e-04
3.891703e+03 3.281611e-04
3.892603e+03 3.674346e-04
3.893503e+03 3.979876e-04
3.894403e+03 4.189970e-04
3.895303e+03 4.383069e-04
3.896204e+03 4.535947e-04
3.897104e+03 4.696263e-04
3.898004e+03 4.908492e-04
3.898904e+03 5.048120e-04
3.899805e+03 5.098158e-04
3.900705e+03 5.182454e-04
3.901605e+03 5.358930e-04
3.902505e+03 5.524288e-04
3.903406e+03 5.624115e-04
3.904306e+03 5.739558e-04
3.905206e+03 5.836375e-04
3.906106e+03 5.844198e-04
3.907006e+03 5.859402e-04
3.907907e+03 5.963040e-04
3.908807e+03 6.115163e-04
3.909707e+03 6.245274e-04
3.910607e+03 6.334872e-04
3.911508e+03 6.416568e-04
3.912408e+03 6.435243e-04
3.913308e+03 6.371269e-04
3.914208e+03 6.259568e-04
3.915109e+03 6.244776e-04
3.916009e+03 6.346566e-04
3.916909e+03 6.375872e-04
3.917809e+03 6.385019e-04
3.918710e+03 6.396686e-04
3.919610e+03 6.370673e-04
3.920510e+03 6.338864e-04
3.921410e+03 6.321210e-04
3.922310e+03 6.374750e-04
3.923211e+03 6.437782e-04
3.924111e+03 6.425415e-04
3.925011e+03 6.412409e-04
3.925911e+03 6.423329e-04
3.926812e+03 6.374053e-04
3.927712e+03 6.300994e-04
3.928612e+03 6.263352e-04
3.929512e+03 6.153450e-04
3.930413e+03 5.989766e-04
3.931313e+03 5.866344e-04
3.932213e+03 5.634430e-04
3.933113e+03 5.186962e-04
3.934013e+03 4.753807e-04
3.934914e+03 4.672802e-04
3.935814e+03 4.977129e-04
3.936714e+03 5.480665e-04
3.937614e+03 5.923858e-04
3.938515e+03 6.136838e-04
3.939415e+03 6.207048e-04
3.940315e+03 6.223565e-04
3.941215e+03 6.299259e-04
3.942116e+03 6.364420e-04
3.943016e+03 6.352391e-04
3.943916e+03 6.308189e-04
3.944816e+03 6.291901e-04
