# wave flux
# 
# Av = 0.2726972120450909
# mass = 0.39363179361589695
# Lv = 1.8913605621118594
# sfr = 9.071071188740806e-10
# line_EW_Ha = 283.2381680185089
# line_C_Ha = 0.00014485196106538812
# line_flux_Ha = 0.04215674972277094
# line_EW_O3 = 67.79168259384487
# line_C_O3 = 0.00037282124594268545
# line_flux_O3 = 0.02553659791341206
# line_EW_Hb = 50.90491246852636
# line_C_Hb = 0.00023637710051812422
# line_flux_Hb = 0.012296486962459507
# line_EW_O2 = 71.33707359934867
# line_C_O2 = 0.00042297595132179214
# line_flux_O2 = 0.03008597210088982
# line_EW_Lya = 96.74397640093214
# line_C_Lya = 0.001092667500515513
# line_flux_Lya = 0.12000350477563791
# 
9.100000e+01 7.135253e-14
9.400000e+01 7.613469e-14
9.600000e+01 7.940897e-14
9.800000e+01 8.275218e-14
1.000000e+02 8.616433e-14
1.020000e+02 8.964541e-14
1.040000e+02 9.319543e-14
1.060000e+02 9.681439e-14
1.080000e+02 1.005023e-13
1.100000e+02 1.042591e-13
1.140000e+02 1.119796e-13
1.180000e+02 1.199758e-13
1.210000e+02 1.261539e-13
1.250000e+02 1.346327e-13
1.270000e+02 1.389755e-13
1.280000e+02 1.411728e-13
1.310000e+02 1.478679e-13
1.320000e+02 1.501341e-13
1.340000e+02 1.547182e-13
1.370000e+02 1.617236e-13
1.400000e+02 1.688841e-13
1.430000e+02 1.761997e-13
1.470000e+02 1.861952e-13
1.510000e+02 1.964664e-13
1.550000e+02 2.070134e-13
1.590000e+02 2.178362e-13
1.620000e+02 2.261342e-13
1.660000e+02 2.374396e-13
1.700000e+02 2.490207e-13
1.730000e+02 2.578876e-13
1.770000e+02 2.699519e-13
1.800000e+02 2.791827e-13
1.820000e+02 2.854261e-13
1.860000e+02 2.981452e-13
1.910000e+02 3.146260e-13
1.940000e+02 3.251263e-13
1.980000e+02 3.420459e-13
2.020000e+02 3.655073e-13
2.050000e+02 3.882477e-13
2.100000e+02 6.048261e-13
2.160000e+02 1.500066e-12
2.200000e+02 2.844813e-12
2.230000e+02 5.276277e-12
2.270000e+02 1.552804e-10
2.300000e+02 2.558205e-10
2.340000e+02 1.092489e-10
2.400000e+02 3.868424e-10
2.460000e+02 1.108705e-09
2.520000e+02 5.913151e-09
2.570000e+02 1.409099e-08
2.600000e+02 1.264771e-08
2.640000e+02 2.164241e-08
2.690000e+02 2.425039e-08
2.740000e+02 1.344711e-07
2.790000e+02 1.239961e-07
2.840000e+02 1.608157e-07
2.900000e+02 1.272300e-07
2.960000e+02 3.509193e-07
3.010000e+02 4.292221e-07
3.080000e+02 6.704476e-07
3.180000e+02 7.680170e-07
3.280000e+02 2.174730e-06
3.380000e+02 1.259018e-06
3.480000e+02 2.959798e-06
3.570000e+02 1.234385e-06
3.660000e+02 4.806321e-06
3.750000e+02 5.545604e-06
3.850000e+02 6.355448e-06
3.950000e+02 6.237339e-06
4.050000e+02 1.473041e-05
4.140000e+02 1.638518e-05
4.220000e+02 1.466884e-05
4.300000e+02 1.403419e-05
4.410000e+02 1.087275e-05
4.510000e+02 2.290358e-05
4.600000e+02 1.785055e-05
4.700000e+02 3.499770e-05
4.800000e+02 2.553926e-05
4.900000e+02 3.962038e-05
5.000000e+02 5.392631e-05
5.060000e+02 3.405828e-05
5.120000e+02 7.033129e-05
5.200000e+02 5.395378e-05
5.300000e+02 6.781904e-05
5.400000e+02 1.019363e-05
5.500000e+02 1.187935e-05
5.600000e+02 7.589774e-05
5.700000e+02 8.220472e-05
5.800000e+02 6.880501e-05
5.900000e+02 1.109126e-04
6.000000e+02 7.779937e-05
6.100000e+02 1.109807e-04
6.200000e+02 8.571989e-05
6.300000e+02 7.781118e-05
6.400000e+02 1.086291e-04
6.500000e+02 1.253376e-04
6.580000e+02 1.022846e-04
6.650000e+02 9.820897e-05
6.750000e+02 1.437979e-04
6.850000e+02 1.379832e-04
6.950000e+02 1.520592e-04
7.050000e+02 1.626219e-04
7.160000e+02 2.004298e-04
7.260000e+02 1.914065e-04
7.350000e+02 2.045785e-04
7.450000e+02 1.873702e-04
7.550000e+02 1.384117e-04
7.650000e+02 2.267145e-04
7.750000e+02 2.083321e-04
7.850000e+02 4.976491e-05
7.950000e+02 2.631126e-04
8.050000e+02 2.739811e-04
8.150000e+02 2.632323e-04
8.250000e+02 2.732056e-04
8.350000e+02 2.218664e-04
8.450000e+02 2.686266e-04
8.550000e+02 2.500373e-04
8.650000e+02 3.012345e-04
8.750000e+02 3.195045e-04
8.850000e+02 3.313271e-04
8.950000e+02 3.498072e-04
9.050000e+02 3.467889e-04
9.150000e+02 9.676925e-04
9.250000e+02 8.258212e-04
9.350000e+02 1.320058e-03
9.450000e+02 1.402595e-03
9.550000e+02 1.346392e-03
9.650000e+02 1.407940e-03
9.750000e+02 7.959318e-04
9.850000e+02 8.767022e-04
9.950000e+02 1.388590e-03
1.005000e+03 1.496878e-03
1.015000e+03 1.501119e-03
1.025000e+03 1.117301e-03
1.035000e+03 1.206436e-03
1.045000e+03 1.931698e-03
1.055000e+03 1.849578e-03
1.065000e+03 1.677574e-03
1.075000e+03 1.860293e-03
1.085000e+03 1.535339e-03
1.095000e+03 1.831952e-03
1.105000e+03 1.721204e-03
1.115000e+03 1.526051e-03
1.125000e+03 1.355718e-03
1.135000e+03 1.874758e-03
1.145000e+03 1.765523e-03
1.155000e+03 1.762396e-03
1.165000e+03 1.725871e-03
1.175000e+03 1.243012e-03
1.185000e+03 1.620840e-03
1.195000e+03 1.504212e-03
1.205000e+03 1.320642e-03
1.215000e+03 1.092668e-03
1.225000e+03 1.341338e-03
1.235000e+03 1.509159e-03
1.245000e+03 1.770771e-03
1.255000e+03 1.811460e-03
1.265000e+03 1.701942e-03
1.275000e+03 1.889283e-03
1.285000e+03 1.838524e-03
1.295000e+03 1.642339e-03
1.305000e+03 1.648794e-03
1.315000e+03 1.816622e-03
1.325000e+03 1.713050e-03
1.335000e+03 1.590091e-03
1.345000e+03 1.780317e-03
1.355000e+03 1.688291e-03
1.365000e+03 1.569966e-03
1.375000e+03 1.680354e-03
1.385000e+03 1.491585e-03
1.395000e+03 1.416452e-03
1.405000e+03 1.807584e-03
1.415000e+03 1.540052e-03
1.425000e+03 1.499556e-03
1.435000e+03 1.521336e-03
1.442000e+03 1.583485e-03
1.447000e+03 1.561292e-03
1.455000e+03 1.544315e-03
1.465000e+03 1.500587e-03
1.475000e+03 1.500733e-03
1.485000e+03 1.532756e-03
1.495000e+03 1.544973e-03
1.505000e+03 1.455763e-03
1.512000e+03 1.326467e-03
1.517000e+03 1.332140e-03
1.525000e+03 1.331290e-03
1.535000e+03 1.055230e-03
1.545000e+03 8.680224e-04
1.555000e+03 1.408571e-03
1.565000e+03 1.200172e-03
1.575000e+03 1.244149e-03
1.585000e+03 1.271821e-03
1.595000e+03 1.341580e-03
1.605000e+03 1.258125e-03
1.615000e+03 1.315327e-03
1.625000e+03 1.215759e-03
1.635000e+03 1.257377e-03
1.645000e+03 1.284323e-03
1.655000e+03 1.168478e-03
1.665000e+03 1.288378e-03
1.672000e+03 1.157937e-03
1.677000e+03 1.254584e-03
1.685000e+03 1.331065e-03
1.695000e+03 1.251965e-03
1.705000e+03 1.171045e-03
1.715000e+03 1.040667e-03
1.725000e+03 1.107866e-03
1.735000e+03 1.232865e-03
1.745000e+03 1.153194e-03
1.755000e+03 1.216229e-03
1.765000e+03 1.153774e-03
1.775000e+03 1.133930e-03
1.785000e+03 1.144289e-03
1.795000e+03 1.207674e-03
1.805000e+03 1.172011e-03
1.815000e+03 1.096503e-03
1.825000e+03 1.080838e-03
1.835000e+03 1.102638e-03
1.845000e+03 1.024319e-03
1.855000e+03 1.013930e-03
1.865000e+03 1.024764e-03
1.875000e+03 1.048611e-03
1.885000e+03 9.680415e-04
1.895000e+03 9.544459e-04
1.905000e+03 1.015853e-03
1.915000e+03 9.703399e-04
1.925000e+03 9.372360e-04
1.935000e+03 9.777450e-04
1.945000e+03 1.003904e-03
1.955000e+03 8.741833e-04
1.967000e+03 1.001227e-03
1.976000e+03 9.980942e-04
1.984000e+03 9.470611e-04
1.995000e+03 9.184696e-04
2.005000e+03 9.094965e-04
2.015000e+03 9.005589e-04
2.025000e+03 9.304649e-04
2.035000e+03 8.682298e-04
2.045000e+03 8.805418e-04
2.055000e+03 8.584011e-04
2.065000e+03 8.660145e-04
2.074000e+03 8.933022e-04
2.078000e+03 8.474255e-04
2.085000e+03 8.420220e-04
2.095000e+03 8.359637e-04
2.105000e+03 8.409610e-04
2.115000e+03 8.218262e-04
2.125000e+03 8.425168e-04
2.135000e+03 8.058947e-04
2.145000e+03 8.067215e-04
2.155000e+03 8.180366e-04
2.165000e+03 8.002527e-04
2.175000e+03 7.916582e-04
2.185000e+03 7.772238e-04
2.195000e+03 7.943500e-04
2.205000e+03 7.792844e-04
2.215000e+03 7.575108e-04
2.225000e+03 7.419221e-04
2.235000e+03 7.653625e-04
2.245000e+03 7.462905e-04
2.255000e+03 7.307775e-04
2.265000e+03 7.389335e-04
2.275000e+03 7.479113e-04
2.285000e+03 7.546104e-04
2.295000e+03 7.237444e-04
2.305000e+03 7.325982e-04
2.315000e+03 7.125267e-04
2.325000e+03 6.308624e-04
2.335000e+03 6.878870e-04
2.345000e+03 6.764468e-04
2.355000e+03 6.981364e-04
2.365000e+03 6.714439e-04
2.375000e+03 6.783066e-04
2.385000e+03 6.530318e-04
2.395000e+03 6.726486e-04
2.405000e+03 6.558349e-04
2.415000e+03 6.606158e-04
2.425000e+03 6.733700e-04
2.435000e+03 6.548837e-04
2.445000e+03 6.712454e-04
2.455000e+03 6.634578e-04
2.465000e+03 6.583654e-04
2.475000e+03 6.442180e-04
2.485000e+03 6.547000e-04
2.495000e+03 6.280495e-04
2.505000e+03 6.587586e-04
2.513000e+03 6.260162e-04
2.518000e+03 6.365998e-04
2.525000e+03 6.187392e-04
2.535000e+03 6.165864e-04
2.545000e+03 6.093723e-04
2.555000e+03 6.233708e-04
2.565000e+03 6.165314e-04
2.575000e+03 6.307075e-04
2.585000e+03 6.255806e-04
2.595000e+03 6.200096e-04
2.605000e+03 6.064421e-04
2.615000e+03 6.015593e-04
2.625000e+03 6.082401e-04
2.635000e+03 6.089181e-04
2.645000e+03 6.284904e-04
2.655000e+03 6.257164e-04
2.665000e+03 6.002118e-04
2.675000e+03 6.096227e-04
2.685000e+03 6.049274e-04
2.695000e+03 5.907530e-04
2.705000e+03 5.929732e-04
2.715000e+03 5.789645e-04
2.725000e+03 5.769805e-04
2.735000e+03 5.879879e-04
2.745000e+03 5.513191e-04
2.755000e+03 5.513772e-04
2.765000e+03 5.572343e-04
2.775000e+03 5.673411e-04
2.785000e+03 5.569712e-04
2.795000e+03 5.022509e-04
2.805000e+03 5.189253e-04
2.815000e+03 5.572210e-04
2.825000e+03 5.587462e-04
2.835000e+03 5.437971e-04
2.845000e+03 5.367841e-04
2.855000e+03 5.308478e-04
2.865000e+03 5.432803e-04
2.875000e+03 5.364185e-04
2.885000e+03 5.359786e-04
2.895000e+03 5.297020e-04
2.910000e+03 5.417524e-04
2.930000e+03 5.285464e-04
2.950000e+03 5.200950e-04
2.970000e+03 5.181080e-04
2.990000e+03 5.136109e-04
3.010000e+03 5.106904e-04
3.030000e+03 5.056333e-04
3.050000e+03 4.997028e-04
3.070000e+03 4.933563e-04
3.090000e+03 4.895754e-04
3.110000e+03 4.824064e-04
3.130000e+03 4.759605e-04
3.150000e+03 4.728910e-04
3.170000e+03 4.669328e-04
3.190000e+03 4.535643e-04
3.210000e+03 4.557265e-04
3.230000e+03 4.454931e-04
3.250000e+03 4.464538e-04
3.270000e+03 4.454256e-04
3.290000e+03 4.405839e-04
3.310000e+03 4.367946e-04
3.330000e+03 4.309601e-04
3.350000e+03 4.238221e-04
3.370000e+03 4.162036e-04
3.390000e+03 4.128108e-04
3.410000e+03 4.109987e-04
3.430000e+03 4.064444e-04
3.450000e+03 4.037140e-04
3.470000e+03 3.992841e-04
3.490000e+03 3.964792e-04
3.510000e+03 3.957080e-04
3.530000e+03 3.900773e-04
3.550000e+03 3.895422e-04
3.570000e+03 3.783562e-04
3.590000e+03 3.738850e-04
3.601827e+03 3.850855e-04
3.602727e+03 3.792538e-04
3.603628e+03 3.756069e-04
3.604528e+03 3.733335e-04
3.605428e+03 3.712594e-04
3.606329e+03 3.726475e-04
3.607229e+03 3.752075e-04
3.608129e+03 3.746922e-04
3.609029e+03 3.706809e-04
3.609929e+03 3.671198e-04
3.610830e+03 3.661075e-04
3.611730e+03 3.676207e-04
3.612630e+03 3.687200e-04
3.613530e+03 3.653793e-04
3.614430e+03 3.645866e-04
3.615331e+03 3.700057e-04
3.616231e+03 3.760972e-04
3.617131e+03 3.772667e-04
3.618032e+03 3.728185e-04
3.618932e+03 3.650165e-04
3.619832e+03 3.613101e-04
3.620732e+03 3.633921e-04
3.621633e+03 3.682525e-04
3.622533e+03 3.727117e-04
3.623433e+03 3.746865e-04
3.624333e+03 3.737030e-04
3.625233e+03 3.736745e-04
3.626134e+03 3.774512e-04
3.627034e+03 3.831229e-04
3.627934e+03 3.844958e-04
3.628834e+03 3.831594e-04
3.629735e+03 3.799025e-04
3.630635e+03 3.726806e-04
3.631535e+03 3.624058e-04
3.632435e+03 3.568748e-04
3.633336e+03 3.581620e-04
3.634236e+03 3.611883e-04
3.635136e+03 3.623606e-04
3.636036e+03 3.650081e-04
3.636936e+03 3.684861e-04
3.637837e+03 3.709479e-04
3.638737e+03 3.737497e-04
3.639637e+03 3.758330e-04
3.640537e+03 3.769808e-04
3.641438e+03 3.754957e-04
3.642338e+03 3.732733e-04
3.643238e+03 3.711626e-04
3.644138e+03 3.689841e-04
3.645039e+03 3.667725e-04
3.645939e+03 3.678892e-04
3.646839e+03 3.708128e-04
3.647739e+03 3.718453e-04
3.648640e+03 3.724332e-04
3.649540e+03 3.751543e-04
3.650440e+03 3.766596e-04
3.651340e+03 3.777900e-04
3.652240e+03 3.803774e-04
3.653141e+03 3.838024e-04
3.654041e+03 3.865130e-04
3.654941e+03 3.877437e-04
3.655841e+03 3.881588e-04
3.656742e+03 3.886827e-04
3.657642e+03 3.903321e-04
3.658542e+03 3.918311e-04
3.659442e+03 3.921277e-04
3.660343e+03 3.910352e-04
3.661243e+03 3.895708e-04
3.662143e+03 3.895419e-04
3.663043e+03 3.875468e-04
3.663943e+03 3.844783e-04
3.664844e+03 3.837149e-04
3.665744e+03 3.854785e-04
3.666644e+03 3.867661e-04
3.667544e+03 3.864018e-04
3.668445e+03 3.865329e-04
3.669345e+03 3.843481e-04
3.670245e+03 3.814500e-04
3.671145e+03 3.824817e-04
3.672046e+03 3.861851e-04
3.672946e+03 3.885005e-04
3.673846e+03 3.886114e-04
3.674746e+03 3.868907e-04
3.675646e+03 3.872947e-04
3.676547e+03 3.863328e-04
3.677447e+03 3.815168e-04
3.678347e+03 3.774781e-04
3.679247e+03 3.752128e-04
3.680148e+03 3.741190e-04
3.681048e+03 3.750723e-04
3.681948e+03 3.771520e-04
3.682848e+03 3.782904e-04
3.683749e+03 3.792034e-04
3.684649e+03 3.804635e-04
3.685549e+03 3.775817e-04
3.686449e+03 3.718417e-04
3.687349e+03 3.673947e-04
3.688250e+03 3.678631e-04
3.689150e+03 3.755932e-04
3.690050e+03 3.833107e-04
3.690950e+03 3.842112e-04
3.691851e+03 3.817064e-04
3.692751e+03 3.817019e-04
3.693651e+03 3.849583e-04
3.694551e+03 3.882144e-04
3.695451e+03 3.886099e-04
3.696352e+03 3.832877e-04
3.697252e+03 3.743926e-04
3.698152e+03 3.705582e-04
3.699052e+03 3.791048e-04
3.699953e+03 3.943614e-04
3.700853e+03 4.037728e-04
3.701753e+03 4.022069e-04
3.702653e+03 3.911309e-04
3.703554e+03 3.737853e-04
3.704454e+03 3.565189e-04
3.705354e+03 3.485075e-04
3.706254e+03 3.549209e-04
3.707155e+03 3.719281e-04
3.708055e+03 3.879397e-04
3.708955e+03 3.932571e-04
3.709855e+03 3.873113e-04
3.710755e+03 3.756484e-04
3.711656e+03 3.617911e-04
3.712556e+03 3.519297e-04
3.713456e+03 3.563561e-04
3.714356e+03 3.757431e-04
3.715257e+03 3.968743e-04
3.716157e+03 4.106546e-04
3.717057e+03 4.190310e-04
3.717957e+03 4.218524e-04
3.718858e+03 4.137410e-04
3.719758e+03 3.944722e-04
3.720658e+03 3.688888e-04
3.721558e+03 3.440651e-04
3.722458e+03 3.284052e-04
3.723359e+03 3.315246e-04
3.724259e+03 3.534561e-04
3.725159e+03 3.828931e-04
3.726059e+03 4.075126e-04
3.726960e+03 4.205920e-04
3.727860e+03 4.228198e-04
3.728760e+03 4.254451e-04
3.729660e+03 4.308348e-04
3.730561e+03 4.285811e-04
3.731461e+03 4.140294e-04
3.732361e+03 3.921801e-04
3.733261e+03 3.649472e-04
3.734162e+03 3.361726e-04
3.735062e+03 3.183885e-04
3.735962e+03 3.216970e-04
3.736862e+03 3.415274e-04
3.737762e+03 3.671291e-04
3.738663e+03 3.952658e-04
3.739563e+03 4.229331e-04
3.740463e+03 4.442034e-04
3.741363e+03 4.571328e-04
3.742264e+03 4.616102e-04
3.743164e+03 4.580581e-04
3.744064e+03 4.504850e-04
3.744964e+03 4.429325e-04
3.745865e+03 4.308438e-04
3.746765e+03 4.139589e-04
3.747665e+03 3.952115e-04
3.748565e+03 3.716104e-04
3.749465e+03 3.418720e-04
3.750366e+03 3.191644e-04
3.751266e+03 3.180554e-04
3.752166e+03 3.385096e-04
3.753066e+03 3.690467e-04
3.753967e+03 3.977506e-04
3.754867e+03 4.234981e-04
3.755767e+03 4.457105e-04
3.756668e+03 4.609995e-04
3.757568e+03 4.648340e-04
3.758468e+03 4.604356e-04
3.759368e+03 4.580580e-04
3.760268e+03 4.624421e-04
3.761169e+03 4.684958e-04
3.762069e+03 4.712360e-04
3.762969e+03 4.720463e-04
3.763869e+03 4.693549e-04
3.764769e+03 4.630627e-04
3.765670e+03 4.561240e-04
3.766570e+03 4.438658e-04
3.767470e+03 4.226662e-04
3.768370e+03 4.001526e-04
3.769271e+03 3.790039e-04
3.770171e+03 3.549011e-04
3.771071e+03 3.336312e-04
3.771971e+03 3.318991e-04
3.772872e+03 3.541368e-04
3.773772e+03 3.854653e-04
3.774672e+03 4.122748e-04
3.775572e+03 4.331403e-04
3.776472e+03 4.514228e-04
3.777373e+03 4.693384e-04
3.778273e+03 4.846242e-04
3.779173e+03 4.963994e-04
3.780073e+03 5.088101e-04
3.780974e+03 5.209145e-04
3.781874e+03 5.283599e-04
3.782774e+03 5.309919e-04
3.783675e+03 5.321090e-04
3.784575e+03 5.349892e-04
3.785475e+03 5.361411e-04
3.786375e+03 5.289674e-04
3.787275e+03 5.171527e-04
3.788176e+03 5.089891e-04
3.789076e+03 5.038230e-04
3.789976e+03 4.975469e-04
3.790876e+03 4.904870e-04
3.791776e+03 4.837954e-04
3.792677e+03 4.741437e-04
3.793577e+03 4.582008e-04
3.794477e+03 4.368218e-04
3.795378e+03 4.123239e-04
3.796278e+03 3.869368e-04
3.797178e+03 3.599462e-04
3.798078e+03 3.338810e-04
3.798978e+03 3.221227e-04
3.799879e+03 3.355566e-04
3.800779e+03 3.677560e-04
3.801679e+03 4.025606e-04
3.802579e+03 4.313842e-04
3.803479e+03 4.565254e-04
3.804380e+03 4.780484e-04
3.805280e+03 4.930136e-04
3.806180e+03 5.016503e-04
3.807081e+03 5.061527e-04
3.807981e+03 5.127111e-04
3.808881e+03 5.255671e-04
3.809781e+03 5.411009e-04
3.810682e+03 5.535714e-04
3.811582e+03 5.603996e-04
3.812482e+03 5.604488e-04
3.813382e+03 5.536230e-04
3.814282e+03 5.445633e-04
3.815183e+03 5.393075e-04
3.816083e+03 5.385379e-04
3.816983e+03 5.406980e-04
3.817883e+03 5.438377e-04
3.818784e+03 5.404676e-04
3.819684e+03 5.250457e-04
3.820584e+03 5.080529e-04
3.821484e+03 5.058878e-04
3.822385e+03 5.193477e-04
3.823285e+03 5.316241e-04
3.824185e+03 5.301344e-04
3.825085e+03 5.169649e-04
3.825985e+03 5.041547e-04
3.826886e+03 4.962064e-04
3.827786e+03 4.888189e-04
3.828686e+03 4.788508e-04
3.829586e+03 4.669594e-04
3.830486e+03 4.540558e-04
3.831387e+03 4.389405e-04
3.832287e+03 4.180863e-04
3.833187e+03 3.911510e-04
3.834088e+03 3.624030e-04
3.834988e+03 3.350917e-04
3.835888e+03 3.164584e-04
3.836788e+03 3.174293e-04
3.837689e+03 3.382047e-04
3.838589e+03 3.652964e-04
3.839489e+03 3.910652e-04
3.840389e+03 4.150317e-04
3.841289e+03 4.372902e-04
3.842190e+03 4.601849e-04
3.843090e+03 4.824565e-04
3.843990e+03 4.994808e-04
3.844890e+03 5.110427e-04
3.845791e+03 5.199836e-04
3.846691e+03 5.284167e-04
3.847591e+03 5.378877e-04
3.848491e+03 5.472264e-04
3.849392e+03 5.515876e-04
3.850292e+03 5.510116e-04
3.851192e+03 5.547167e-04
3.852092e+03 5.651868e-04
3.852992e+03 5.727743e-04
3.853893e+03 5.733639e-04
3.854793e+03 5.711629e-04
3.855693e+03 5.668911e-04
3.856593e+03 5.618872e-04
3.857494e+03 5.655485e-04
3.858394e+03 5.754023e-04
3.859294e+03 5.777413e-04
3.860194e+03 5.741606e-04
3.861095e+03 5.752744e-04
3.861995e+03 5.802600e-04
3.862895e+03 5.824882e-04
3.863795e+03 5.834192e-04
3.864696e+03 5.863046e-04
3.865596e+03 5.875646e-04
3.866496e+03 5.852986e-04
3.867396e+03 5.823431e-04
3.868296e+03 5.811969e-04
3.869197e+03 5.826915e-04
3.870097e+03 5.840952e-04
3.870997e+03 5.810741e-04
3.871897e+03 5.709163e-04
3.872798e+03 5.575545e-04
3.873698e+03 5.501197e-04
3.874598e+03 5.527527e-04
3.875498e+03 5.580295e-04
3.876398e+03 5.578664e-04
3.877299e+03 5.495225e-04
3.878199e+03 5.345118e-04
3.879099e+03 5.185161e-04
3.879999e+03 5.113675e-04
3.880900e+03 5.106286e-04
3.881800e+03 5.036251e-04
3.882700e+03 4.870866e-04
3.883600e+03 4.700078e-04
3.884501e+03 4.572507e-04
3.885401e+03 4.411814e-04
3.886301e+03 4.145782e-04
3.887201e+03 3.833329e-04
3.888102e+03 3.538651e-04
3.889002e+03 3.271952e-04
3.889902e+03 3.107106e-04
3.890802e+03 3.177382e-04
3.891703e+03 3.465051e-04
3.892603e+03 3.817891e-04
3.893503e+03 4.115841e-04
3.894403e+03 4.337647e-04
3.895303e+03 4.507125e-04
3.896204e+03 4.651654e-04
3.897104e+03 4.808668e-04
3.898004e+03 4.966955e-04
3.898904e+03 5.074741e-04
3.899805e+03 5.134073e-04
3.900705e+03 5.199386e-04
3.901605e+03 5.320459e-04
3.902505e+03 5.453827e-04
3.903406e+03 5.515013e-04
3.904306e+03 5.539576e-04
3.905206e+03 5.571826e-04
3.906106e+03 5.571902e-04
3.907006e+03 5.575333e-04
3.907907e+03 5.656684e-04
3.908807e+03 5.781721e-04
3.909707e+03 5.882929e-04
3.910607e+03 5.947472e-04
3.911508e+03 5.979466e-04
3.912408e+03 5.978021e-04
3.913308e+03 5.939539e-04
3.914208e+03 5.877547e-04
3.915109e+03 5.860804e-04
3.916009e+03 5.892450e-04
3.916909e+03 5.894321e-04
3.917809e+03 5.864480e-04
3.918710e+03 5.830921e-04
3.919610e+03 5.777948e-04
3.920510e+03 5.716490e-04
3.921410e+03 5.687755e-04
3.922310e+03 5.717703e-04
3.923211e+03 5.761532e-04
3.924111e+03 5.779562e-04
3.925011e+03 5.771192e-04
3.925911e+03 5.717448e-04
3.926812e+03 5.627450e-04
3.927712e+03 5.550248e-04
3.928612e+03 5.502718e-04
3.929512e+03 5.467381e-04
3.930413e+03 5.416871e-04
3.931313e+03 5.336582e-04
3.932213e+03 5.199777e-04
3.933113e+03 4.953224e-04
3.934013e+03 4.665867e-04
3.934914e+03 4.582351e-04
3.935814e+03 4.799611e-04
3.936714e+03 5.111078e-04
3.937614e+03 5.325823e-04
3.938515e+03 5.444325e-04
3.939415e+03 5.527892e-04
3.940315e+03 5.613379e-04
3.941215e+03 5.676983e-04
3.942116e+03 5.693638e-04
3.943016e+03 5.679319e-04
3.943916e+03 5.641442e-04
3.944816e+03 5.599938e-04
