# wave flux
# 
# Av = 0.110746928548095
# mass = 1.1155748766179692
# Lv = 1.4858750736942676
# sfr = 2.8920510728975837e-12
# line_EW_Ha = 1.094956082897887
# line_C_Ha = 0.00012986983080382663
# line_flux_Ha = 0.00014643013240032694
# line_EW_O3 = 0.1275244355023051
# line_C_O3 = 0.0002852160209251989
# line_flux_O3 = 3.703894696832474e-05
# line_EW_Hb = 0.27398540954576
# line_C_Hb = 0.00016243828889599355
# line_flux_Hb = 4.575639489152046e-05
# line_EW_O2 = 0.7773490248857252
# line_C_O2 = 0.00019733170251697997
# line_flux_O2 = 0.00015299571042304023
# line_EW_Lya = 78.61480280959884
# line_C_Lya = 9.043858057862162e-06
# line_flux_Lya = 0.0008113193743776641
# 
9.100000e+01 3.043093e-15
9.400000e+01 3.247046e-15
9.600000e+01 3.386690e-15
9.800000e+01 3.529274e-15
1.000000e+02 3.674798e-15
1.020000e+02 3.823261e-15
1.040000e+02 3.974665e-15
1.060000e+02 4.129009e-15
1.080000e+02 4.286293e-15
1.100000e+02 4.446517e-15
1.140000e+02 4.775785e-15
1.180000e+02 5.116813e-15
1.210000e+02 5.380302e-15
1.250000e+02 5.741911e-15
1.270000e+02 5.927126e-15
1.280000e+02 6.020836e-15
1.310000e+02 6.306376e-15
1.320000e+02 6.403026e-15
1.340000e+02 6.598531e-15
1.370000e+02 6.897302e-15
1.400000e+02 7.202689e-15
1.430000e+02 7.514690e-15
1.470000e+02 7.940984e-15
1.510000e+02 8.379038e-15
1.550000e+02 8.828854e-15
1.590000e+02 9.290431e-15
1.620000e+02 9.644332e-15
1.660000e+02 1.012650e-14
1.700000e+02 1.062048e-14
1.730000e+02 1.099885e-14
1.770000e+02 1.151542e-14
1.800000e+02 1.191809e-14
1.820000e+02 1.220503e-14
1.860000e+02 1.284808e-14
1.910000e+02 1.437493e-14
1.940000e+02 1.679940e-14
1.980000e+02 2.527545e-14
2.020000e+02 4.317883e-14
2.050000e+02 7.684559e-14
2.100000e+02 2.410868e-13
2.160000e+02 7.827963e-13
2.200000e+02 1.062004e-12
2.230000e+02 2.378633e-12
2.270000e+02 7.781316e-12
2.300000e+02 1.293933e-11
2.340000e+02 2.148671e-11
2.400000e+02 5.430560e-11
2.460000e+02 1.028156e-10
2.520000e+02 3.461603e-10
2.570000e+02 6.157328e-10
2.600000e+02 6.655101e-10
2.640000e+02 1.113196e-09
2.690000e+02 1.371944e-09
2.740000e+02 3.992084e-09
2.790000e+02 3.996622e-09
2.840000e+02 5.772683e-09
2.900000e+02 4.586636e-09
2.960000e+02 1.057357e-08
3.010000e+02 1.358111e-08
3.080000e+02 1.802594e-08
3.180000e+02 2.319613e-08
3.280000e+02 5.690675e-08
3.380000e+02 3.734944e-08
3.480000e+02 8.538533e-08
3.570000e+02 4.007735e-08
3.660000e+02 1.384217e-07
3.750000e+02 1.643540e-07
3.850000e+02 1.773381e-07
3.950000e+02 1.834512e-07
4.050000e+02 3.825315e-07
4.140000e+02 4.709207e-07
4.220000e+02 4.017390e-07
4.300000e+02 3.840336e-07
4.410000e+02 3.168566e-07
4.510000e+02 6.444315e-07
4.600000e+02 5.320231e-07
4.700000e+02 9.468700e-07
4.800000e+02 7.276094e-07
4.900000e+02 1.125376e-06
5.000000e+02 1.473053e-06
5.060000e+02 8.993702e-07
5.120000e+02 1.929251e-06
5.200000e+02 1.434964e-06
5.300000e+02 1.789122e-06
5.400000e+02 4.062988e-07
5.500000e+02 4.435500e-07
5.600000e+02 1.987105e-06
5.700000e+02 2.034629e-06
5.800000e+02 1.778792e-06
5.900000e+02 2.707628e-06
6.000000e+02 1.906510e-06
6.100000e+02 2.295714e-06
6.200000e+02 1.827537e-06
6.300000e+02 1.667312e-06
6.400000e+02 2.297525e-06
6.500000e+02 2.605899e-06
6.580000e+02 1.979693e-06
6.650000e+02 1.871495e-06
6.750000e+02 2.774824e-06
6.850000e+02 2.516668e-06
6.950000e+02 2.654182e-06
7.050000e+02 2.743039e-06
7.160000e+02 3.601671e-06
7.260000e+02 3.226757e-06
7.350000e+02 3.424980e-06
7.450000e+02 2.913816e-06
7.550000e+02 2.319862e-06
7.650000e+02 3.524849e-06
7.750000e+02 3.078625e-06
7.850000e+02 7.806001e-07
7.950000e+02 3.410305e-06
8.050000e+02 3.785766e-06
8.150000e+02 3.550958e-06
8.250000e+02 3.428046e-06
8.350000e+02 2.714731e-06
8.450000e+02 3.095681e-06
8.550000e+02 2.933907e-06
8.650000e+02 3.625816e-06
8.750000e+02 3.714685e-06
8.850000e+02 3.848079e-06
8.950000e+02 3.952393e-06
9.050000e+02 3.848425e-06
9.150000e+02 1.068712e-05
9.250000e+02 9.131689e-06
9.350000e+02 1.413801e-05
9.450000e+02 1.476223e-05
9.550000e+02 1.449629e-05
9.650000e+02 1.467486e-05
9.750000e+02 7.813932e-06
9.850000e+02 8.439998e-06
9.950000e+02 1.410269e-05
1.005000e+03 1.498805e-05
1.015000e+03 1.459541e-05
1.025000e+03 1.111204e-05
1.035000e+03 1.164231e-05
1.045000e+03 1.851911e-05
1.055000e+03 1.864117e-05
1.065000e+03 1.818799e-05
1.075000e+03 2.076161e-05
1.085000e+03 1.781231e-05
1.095000e+03 2.098406e-05
1.105000e+03 2.371550e-05
1.115000e+03 2.294235e-05
1.125000e+03 2.131578e-05
1.135000e+03 2.651006e-05
1.145000e+03 2.388384e-05
1.155000e+03 2.180317e-05
1.165000e+03 2.012165e-05
1.175000e+03 1.376843e-05
1.185000e+03 1.513950e-05
1.195000e+03 1.237139e-05
1.205000e+03 1.078074e-05
1.215000e+03 9.043859e-06
1.225000e+03 1.106182e-05
1.235000e+03 1.298960e-05
1.245000e+03 1.586977e-05
1.255000e+03 1.876693e-05
1.265000e+03 1.883734e-05
1.275000e+03 2.620429e-05
1.285000e+03 3.117018e-05
1.295000e+03 3.261054e-05
1.305000e+03 3.245315e-05
1.315000e+03 4.050823e-05
1.325000e+03 4.324490e-05
1.335000e+03 4.361969e-05
1.345000e+03 5.051999e-05
1.355000e+03 4.889937e-05
1.365000e+03 4.822212e-05
1.375000e+03 5.227968e-05
1.385000e+03 5.153527e-05
1.395000e+03 5.364028e-05
1.405000e+03 5.730745e-05
1.415000e+03 5.483626e-05
1.425000e+03 5.608233e-05
1.435000e+03 5.379728e-05
1.442000e+03 5.894524e-05
1.447000e+03 6.035470e-05
1.455000e+03 6.171790e-05
1.465000e+03 5.815528e-05
1.475000e+03 5.871691e-05
1.485000e+03 6.068059e-05
1.495000e+03 6.259619e-05
1.505000e+03 6.377097e-05
1.512000e+03 6.093630e-05
1.517000e+03 6.224049e-05
1.525000e+03 6.088268e-05
1.535000e+03 5.780412e-05
1.545000e+03 6.296665e-05
1.555000e+03 6.397005e-05
1.565000e+03 5.834275e-05
1.575000e+03 6.565226e-05
1.585000e+03 6.907302e-05
1.595000e+03 7.372079e-05
1.605000e+03 6.894368e-05
1.615000e+03 6.996872e-05
1.625000e+03 6.427004e-05
1.635000e+03 6.849289e-05
1.645000e+03 7.419873e-05
1.655000e+03 6.120249e-05
1.665000e+03 7.552463e-05
1.672000e+03 6.186683e-05
1.677000e+03 7.874428e-05
1.685000e+03 8.435595e-05
1.695000e+03 7.693166e-05
1.705000e+03 7.655224e-05
1.715000e+03 8.039295e-05
1.725000e+03 8.044763e-05
1.735000e+03 8.663790e-05
1.745000e+03 8.402889e-05
1.755000e+03 9.089957e-05
1.765000e+03 7.919611e-05
1.775000e+03 8.761748e-05
1.785000e+03 8.711303e-05
1.795000e+03 9.618084e-05
1.805000e+03 9.342942e-05
1.815000e+03 9.318173e-05
1.825000e+03 8.922904e-05
1.835000e+03 8.781403e-05
1.845000e+03 8.065947e-05
1.855000e+03 8.591437e-05
1.865000e+03 8.979848e-05
1.875000e+03 8.990275e-05
1.885000e+03 8.997952e-05
1.895000e+03 9.221971e-05
1.905000e+03 8.904400e-05
1.915000e+03 9.204000e-05
1.925000e+03 9.157467e-05
1.935000e+03 8.317879e-05
1.945000e+03 9.564802e-05
1.955000e+03 9.485674e-05
1.967000e+03 9.999442e-05
1.976000e+03 9.738270e-05
1.984000e+03 9.625329e-05
1.995000e+03 9.449330e-05
2.005000e+03 9.081610e-05
2.015000e+03 8.991796e-05
2.025000e+03 8.658826e-05
2.035000e+03 9.252134e-05
2.045000e+03 9.675410e-05
2.055000e+03 9.348711e-05
2.065000e+03 9.159660e-05
2.074000e+03 9.890101e-05
2.078000e+03 1.022445e-04
2.085000e+03 1.012729e-04
2.095000e+03 9.753991e-05
2.105000e+03 9.372437e-05
2.115000e+03 9.525442e-05
2.125000e+03 9.584160e-05
2.135000e+03 8.566932e-05
2.145000e+03 9.463846e-05
2.155000e+03 9.441601e-05
2.165000e+03 8.913055e-05
2.175000e+03 8.899879e-05
2.185000e+03 9.227893e-05
2.195000e+03 9.799233e-05
2.205000e+03 9.405900e-05
2.215000e+03 8.675472e-05
2.225000e+03 8.733759e-05
2.235000e+03 9.820849e-05
2.245000e+03 9.177392e-05
2.255000e+03 8.643797e-05
2.265000e+03 8.577252e-05
2.275000e+03 9.150057e-05
2.285000e+03 9.620439e-05
2.295000e+03 8.988803e-05
2.305000e+03 9.358878e-05
2.315000e+03 9.115223e-05
2.325000e+03 7.564843e-05
2.335000e+03 8.348123e-05
2.345000e+03 7.388567e-05
2.355000e+03 8.997133e-05
2.365000e+03 7.625344e-05
2.375000e+03 8.399221e-05
2.385000e+03 6.986193e-05
2.395000e+03 7.784837e-05
2.405000e+03 7.604010e-05
2.415000e+03 7.862239e-05
2.425000e+03 9.047709e-05
2.435000e+03 8.770991e-05
2.445000e+03 9.383509e-05
2.455000e+03 9.293123e-05
2.465000e+03 9.232080e-05
2.475000e+03 8.685066e-05
2.485000e+03 8.600369e-05
2.495000e+03 8.439192e-05
2.505000e+03 9.835579e-05
2.513000e+03 8.217308e-05
2.518000e+03 7.765769e-05
2.525000e+03 7.489886e-05
2.535000e+03 7.813685e-05
2.545000e+03 7.966522e-05
2.555000e+03 9.011132e-05
2.565000e+03 8.678851e-05
2.575000e+03 9.427763e-05
2.585000e+03 9.347313e-05
2.595000e+03 9.113373e-05
2.605000e+03 8.660499e-05
2.615000e+03 8.323329e-05
2.625000e+03 9.342047e-05
2.635000e+03 1.001558e-04
2.645000e+03 1.161148e-04
2.655000e+03 1.215615e-04
2.665000e+03 1.070724e-04
2.675000e+03 1.138490e-04
2.685000e+03 1.162692e-04
2.695000e+03 1.064760e-04
2.705000e+03 1.117955e-04
2.715000e+03 1.020415e-04
2.725000e+03 1.020150e-04
2.735000e+03 1.094852e-04
2.745000e+03 8.766478e-05
2.755000e+03 9.433363e-05
2.765000e+03 1.023375e-04
2.775000e+03 1.090607e-04
2.785000e+03 9.667088e-05
2.795000e+03 6.013617e-05
2.805000e+03 6.897808e-05
2.815000e+03 1.095439e-04
2.825000e+03 1.195980e-04
2.835000e+03 1.166682e-04
2.845000e+03 1.111103e-04
2.855000e+03 9.946155e-05
2.865000e+03 1.183114e-04
2.875000e+03 1.201309e-04
2.885000e+03 1.200528e-04
2.895000e+03 1.200191e-04
2.910000e+03 1.347910e-04
2.930000e+03 1.290095e-04
2.950000e+03 1.272098e-04
2.970000e+03 1.303504e-04
2.990000e+03 1.321147e-04
3.010000e+03 1.346513e-04
3.030000e+03 1.351277e-04
3.050000e+03 1.372087e-04
3.070000e+03 1.379104e-04
3.090000e+03 1.392355e-04
3.110000e+03 1.397467e-04
3.130000e+03 1.380216e-04
3.150000e+03 1.390122e-04
3.170000e+03 1.415776e-04
3.190000e+03 1.338367e-04
3.210000e+03 1.402963e-04
3.230000e+03 1.333660e-04
3.250000e+03 1.447108e-04
3.270000e+03 1.523042e-04
3.290000e+03 1.519585e-04
3.310000e+03 1.523182e-04
3.330000e+03 1.510974e-04
3.350000e+03 1.491785e-04
3.370000e+03 1.404200e-04
3.390000e+03 1.453306e-04
3.410000e+03 1.469976e-04
3.430000e+03 1.506627e-04
3.450000e+03 1.516008e-04
3.470000e+03 1.520432e-04
3.490000e+03 1.552926e-04
3.510000e+03 1.590894e-04
3.530000e+03 1.548527e-04
3.550000e+03 1.630129e-04
3.570000e+03 1.496230e-04
3.590000e+03 1.486672e-04
3.601827e+03 1.440787e-04
3.602727e+03 1.419828e-04
3.603628e+03 1.553496e-04
3.604528e+03 1.533830e-04
3.605428e+03 1.482224e-04
3.606329e+03 1.600090e-04
3.607229e+03 1.761512e-04
3.608129e+03 1.667990e-04
3.609029e+03 1.464371e-04
3.609929e+03 1.456145e-04
3.610830e+03 1.494580e-04
3.611730e+03 1.488616e-04
3.612630e+03 1.595143e-04
3.613530e+03 1.430431e-04
3.614430e+03 1.383518e-04
3.615331e+03 1.544863e-04
3.616231e+03 1.713924e-04
3.617131e+03 1.735232e-04
3.618032e+03 1.678885e-04
3.618932e+03 1.548590e-04
3.619832e+03 1.449880e-04
3.620732e+03 1.468948e-04
3.621633e+03 1.525946e-04
3.622533e+03 1.677385e-04
3.623433e+03 1.751076e-04
3.624333e+03 1.618386e-04
3.625233e+03 1.475624e-04
3.626134e+03 1.501608e-04
3.627034e+03 1.670992e-04
3.627934e+03 1.823685e-04
3.628834e+03 1.813752e-04
3.629735e+03 1.639562e-04
3.630635e+03 1.449699e-04
3.631535e+03 1.410017e-04
3.632435e+03 1.499525e-04
3.633336e+03 1.388487e-04
3.634236e+03 1.413010e-04
3.635136e+03 1.586106e-04
3.636036e+03 1.607894e-04
3.636936e+03 1.663916e-04
3.637837e+03 1.551288e-04
3.638737e+03 1.472410e-04
3.639637e+03 1.496655e-04
3.640537e+03 1.523669e-04
3.641438e+03 1.500878e-04
3.642338e+03 1.475205e-04
3.643238e+03 1.461193e-04
3.644138e+03 1.458492e-04
3.645039e+03 1.474032e-04
3.645939e+03 1.488531e-04
3.646839e+03 1.547923e-04
3.647739e+03 1.615724e-04
3.648640e+03 1.665418e-04
3.649540e+03 1.691004e-04
3.650440e+03 1.596818e-04
3.651340e+03 1.563247e-04
3.652240e+03 1.616123e-04
3.653141e+03 1.677121e-04
3.654041e+03 1.742034e-04
3.654941e+03 1.803767e-04
3.655841e+03 1.902350e-04
3.656742e+03 1.793200e-04
3.657642e+03 1.705146e-04
3.658542e+03 1.745204e-04
3.659442e+03 1.799267e-04
3.660343e+03 1.727029e-04
3.661243e+03 1.542842e-04
3.662143e+03 1.699167e-04
3.663043e+03 1.796765e-04
3.663943e+03 1.655664e-04
3.664844e+03 1.578974e-04
3.665744e+03 1.634802e-04
3.666644e+03 1.590383e-04
3.667544e+03 1.662856e-04
3.668445e+03 1.735099e-04
3.669345e+03 1.672460e-04
3.670245e+03 1.682593e-04
3.671145e+03 1.753239e-04
3.672046e+03 1.702715e-04
3.672946e+03 1.665571e-04
3.673846e+03 1.803402e-04
3.674746e+03 1.721847e-04
3.675646e+03 1.667004e-04
3.676547e+03 1.644380e-04
3.677447e+03 1.631027e-04
3.678347e+03 1.751836e-04
3.679247e+03 1.800818e-04
3.680148e+03 1.703430e-04
3.681048e+03 1.586520e-04
3.681948e+03 1.502925e-04
3.682848e+03 1.509004e-04
3.683749e+03 1.643418e-04
3.684649e+03 1.774134e-04
3.685549e+03 1.710783e-04
3.686449e+03 1.524275e-04
3.687349e+03 1.412883e-04
3.688250e+03 1.410029e-04
3.689150e+03 1.653617e-04
3.690050e+03 1.904709e-04
3.690950e+03 1.835174e-04
3.691851e+03 1.624493e-04
3.692751e+03 1.579672e-04
3.693651e+03 1.718861e-04
3.694551e+03 1.722531e-04
3.695451e+03 1.694076e-04
3.696352e+03 1.701436e-04
3.697252e+03 1.641668e-04
3.698152e+03 1.628105e-04
3.699052e+03 1.667518e-04
3.699953e+03 1.788295e-04
3.700853e+03 1.923817e-04
3.701753e+03 1.888071e-04
3.702653e+03 1.719844e-04
3.703554e+03 1.567115e-04
3.704454e+03 1.449485e-04
3.705354e+03 1.434403e-04
3.706254e+03 1.530879e-04
3.707155e+03 1.630519e-04
3.708055e+03 1.713239e-04
3.708955e+03 1.765151e-04
3.709855e+03 1.685045e-04
3.710755e+03 1.576039e-04
3.711656e+03 1.492080e-04
3.712556e+03 1.446552e-04
3.713456e+03 1.552226e-04
3.714356e+03 1.675940e-04
3.715257e+03 1.872252e-04
3.716157e+03 2.027598e-04
3.717057e+03 2.066757e-04
3.717957e+03 2.106520e-04
3.718858e+03 2.005893e-04
3.719758e+03 1.790486e-04
3.720658e+03 1.628505e-04
3.721558e+03 1.434518e-04
3.722458e+03 1.222533e-04
3.723359e+03 1.167330e-04
3.724259e+03 1.411928e-04
3.725159e+03 1.819710e-04
3.726059e+03 2.047037e-04
3.726960e+03 2.043030e-04
3.727860e+03 1.977767e-04
3.728760e+03 1.978868e-04
3.729660e+03 2.004906e-04
3.730561e+03 2.031615e-04
3.731461e+03 1.991241e-04
3.732361e+03 1.846147e-04
3.733261e+03 1.616934e-04
3.734162e+03 1.305937e-04
3.735062e+03 1.106476e-04
3.735962e+03 1.119215e-04
3.736862e+03 1.265290e-04
3.737762e+03 1.422142e-04
3.738663e+03 1.618921e-04
3.739563e+03 1.872635e-04
3.740463e+03 2.092074e-04
3.741363e+03 2.190407e-04
3.742264e+03 2.198733e-04
3.743164e+03 2.100233e-04
3.744064e+03 1.964140e-04
3.744964e+03 1.930623e-04
3.745865e+03 1.881735e-04
3.746765e+03 1.789693e-04
3.747665e+03 1.726595e-04
3.748565e+03 1.568555e-04
3.749465e+03 1.266488e-04
3.750366e+03 1.059279e-04
3.751266e+03 1.144468e-04
3.752166e+03 1.404285e-04
3.753066e+03 1.636658e-04
3.753967e+03 1.784141e-04
3.754867e+03 1.970353e-04
3.755767e+03 2.126562e-04
3.756668e+03 2.196260e-04
3.757568e+03 2.212447e-04
3.758468e+03 2.079785e-04
3.759368e+03 1.970828e-04
3.760268e+03 2.019855e-04
3.761169e+03 2.089065e-04
3.762069e+03 2.128646e-04
3.762969e+03 2.232409e-04
3.763869e+03 2.279169e-04
3.764769e+03 2.206734e-04
3.765670e+03 2.166395e-04
3.766570e+03 2.102218e-04
3.767470e+03 1.907953e-04
3.768370e+03 1.781270e-04
3.769271e+03 1.725721e-04
3.770171e+03 1.596285e-04
3.771071e+03 1.386511e-04
3.771971e+03 1.272104e-04
3.772872e+03 1.489504e-04
3.773772e+03 1.789135e-04
3.774672e+03 1.947586e-04
3.775572e+03 1.995741e-04
3.776472e+03 2.047885e-04
3.777373e+03 2.156131e-04
3.778273e+03 2.311441e-04
3.779173e+03 2.419126e-04
3.780073e+03 2.529674e-04
3.780974e+03 2.621206e-04
3.781874e+03 2.671682e-04
3.782774e+03 2.696115e-04
3.783675e+03 2.693471e-04
3.784575e+03 2.703774e-04
3.785475e+03 2.701887e-04
3.786375e+03 2.606585e-04
3.787275e+03 2.457519e-04
3.788176e+03 2.379385e-04
3.789076e+03 2.306537e-04
3.789976e+03 2.279104e-04
3.790876e+03 2.261171e-04
3.791776e+03 2.215613e-04
3.792677e+03 2.188783e-04
3.793577e+03 2.135107e-04
3.794477e+03 1.967325e-04
3.795378e+03 1.756314e-04
3.796278e+03 1.632034e-04
3.797178e+03 1.507317e-04
3.798078e+03 1.314700e-04
3.798978e+03 1.213157e-04
3.799879e+03 1.290461e-04
3.800779e+03 1.538138e-04
3.801679e+03 1.824028e-04
3.802579e+03 1.995730e-04
3.803479e+03 2.164365e-04
3.804380e+03 2.364270e-04
3.805280e+03 2.452074e-04
3.806180e+03 2.452609e-04
3.807081e+03 2.414930e-04
3.807981e+03 2.427312e-04
3.808881e+03 2.525463e-04
3.809781e+03 2.659052e-04
3.810682e+03 2.775260e-04
3.811582e+03 2.825157e-04
3.812482e+03 2.776220e-04
3.813382e+03 2.669760e-04
3.814282e+03 2.561468e-04
3.815183e+03 2.506717e-04
3.816083e+03 2.507524e-04
3.816983e+03 2.580500e-04
3.817883e+03 2.703607e-04
3.818784e+03 2.770465e-04
3.819684e+03 2.722670e-04
3.820584e+03 2.603544e-04
3.821484e+03 2.528955e-04
3.822385e+03 2.557213e-04
3.823285e+03 2.634648e-04
3.824185e+03 2.613908e-04
3.825085e+03 2.465211e-04
3.825985e+03 2.363059e-04
3.826886e+03 2.334732e-04
3.827786e+03 2.260082e-04
3.828686e+03 2.158960e-04
3.829586e+03 2.087408e-04
3.830486e+03 2.042244e-04
3.831387e+03 1.987384e-04
3.832287e+03 1.847935e-04
3.833187e+03 1.633578e-04
3.834088e+03 1.445966e-04
3.834988e+03 1.285255e-04
3.835888e+03 1.138332e-04
3.836788e+03 1.130557e-04
3.837689e+03 1.304282e-04
3.838589e+03 1.485191e-04
3.839489e+03 1.642664e-04
3.840389e+03 1.795948e-04
3.841289e+03 1.907708e-04
3.842190e+03 2.023536e-04
3.843090e+03 2.142844e-04
3.843990e+03 2.296260e-04
3.844890e+03 2.459890e-04
3.845791e+03 2.534683e-04
3.846691e+03 2.588428e-04
3.847591e+03 2.653601e-04
3.848491e+03 2.739702e-04
3.849392e+03 2.802526e-04
3.850292e+03 2.762185e-04
3.851192e+03 2.765755e-04
3.852092e+03 2.844971e-04
3.852992e+03 2.894943e-04
3.853893e+03 2.943534e-04
3.854793e+03 2.942913e-04
3.855693e+03 2.914649e-04
3.856593e+03 2.854805e-04
3.857494e+03 2.846516e-04
3.858394e+03 2.877323e-04
3.859294e+03 2.866056e-04
3.860194e+03 2.810003e-04
3.861095e+03 2.779405e-04
3.861995e+03 2.874344e-04
3.862895e+03 3.011392e-04
3.863795e+03 3.071754e-04
3.864696e+03 3.067361e-04
3.865596e+03 3.031988e-04
3.866496e+03 2.985654e-04
3.867396e+03 2.961849e-04
3.868296e+03 2.989478e-04
3.869197e+03 3.012809e-04
3.870097e+03 3.009003e-04
3.870997e+03 2.973838e-04
3.871897e+03 2.879035e-04
3.872798e+03 2.750043e-04
3.873698e+03 2.651709e-04
3.874598e+03 2.653886e-04
3.875498e+03 2.738940e-04
3.876398e+03 2.830773e-04
3.877299e+03 2.793782e-04
3.878199e+03 2.637379e-04
3.879099e+03 2.471596e-04
3.879999e+03 2.426167e-04
3.880900e+03 2.477477e-04
3.881800e+03 2.464192e-04
3.882700e+03 2.335049e-04
3.883600e+03 2.212539e-04
3.884501e+03 2.184626e-04
3.885401e+03 2.125692e-04
3.886301e+03 1.929939e-04
3.887201e+03 1.719911e-04
3.888102e+03 1.534201e-04
3.889002e+03 1.341149e-04
3.889902e+03 1.232176e-04
3.890802e+03 1.348080e-04
3.891703e+03 1.587752e-04
3.892603e+03 1.852443e-04
3.893503e+03 2.036334e-04
3.894403e+03 2.135290e-04
3.895303e+03 2.210133e-04
3.896204e+03 2.255401e-04
3.897104e+03 2.328660e-04
3.898004e+03 2.447974e-04
3.898904e+03 2.498171e-04
3.899805e+03 2.485886e-04
3.900705e+03 2.520634e-04
3.901605e+03 2.640989e-04
3.902505e+03 2.748078e-04
3.903406e+03 2.762268e-04
3.904306e+03 2.782035e-04
3.905206e+03 2.817895e-04
3.906106e+03 2.780008e-04
3.907006e+03 2.734181e-04
3.907907e+03 2.782842e-04
3.908807e+03 2.900532e-04
3.909707e+03 3.014978e-04
3.910607e+03 3.079757e-04
3.911508e+03 3.132426e-04
3.912408e+03 3.153739e-04
3.913308e+03 3.129173e-04
3.914208e+03 3.050200e-04
3.915109e+03 3.006799e-04
3.916009e+03 3.048348e-04
3.916909e+03 3.042131e-04
3.917809e+03 3.027012e-04
3.918710e+03 3.020717e-04
3.919610e+03 2.987296e-04
3.920510e+03 2.954978e-04
3.921410e+03 2.928630e-04
3.922310e+03 2.953034e-04
3.923211e+03 3.015526e-04
3.924111e+03 3.034329e-04
3.925011e+03 3.032995e-04
3.925911e+03 3.023749e-04
3.926812e+03 2.947937e-04
3.927712e+03 2.855773e-04
3.928612e+03 2.779286e-04
3.929512e+03 2.649883e-04
3.930413e+03 2.487536e-04
3.931313e+03 2.350525e-04
3.932213e+03 2.156498e-04
3.933113e+03 1.847662e-04
3.934013e+03 1.556035e-04
3.934914e+03 1.489810e-04
3.935814e+03 1.663903e-04
3.936714e+03 2.002778e-04
3.937614e+03 2.353217e-04
3.938515e+03 2.566474e-04
3.939415e+03 2.685526e-04
3.940315e+03 2.776951e-04
3.941215e+03 2.882350e-04
3.942116e+03 2.940633e-04
3.943016e+03 2.932612e-04
3.943916e+03 2.895819e-04
3.944816e+03 2.881586e-04
