# wave flux
# c_bin1.dat from Lancon 2002
# http://vizier.u-strasbg.fr/viz-bin/VizieR?-source=J/A%2BA/393/167
  5100.  0.45450E-05
  5105.  0.45249E-05
  5110.  0.44390E-05
  5115.  0.43271E-05
  5120.  0.42197E-05
  5125.  0.41415E-05
  5130.  0.40994E-05
  5135.  0.41417E-05
  5140.  0.42684E-05
  5145.  0.44924E-05
  5150.  0.48119E-05
  5155.  0.52583E-05
  5160.  0.58572E-05
  5165.  0.66124E-05
  5170.  0.75077E-05
  5175.  0.85441E-05
  5180.  0.96195E-05
  5185.  0.10668E-04
  5190.  0.11655E-04
  5195.  0.12571E-04
  5200.  0.13390E-04
  5205.  0.14074E-04
  5210.  0.14603E-04
  5215.  0.15016E-04
  5220.  0.15359E-04
  5225.  0.15597E-04
  5230.  0.15697E-04
  5235.  0.15728E-04
  5240.  0.15763E-04
  5245.  0.15741E-04
  5250.  0.15562E-04
  5255.  0.15315E-04
  5260.  0.15093E-04
  5265.  0.14914E-04
  5270.  0.14775E-04
  5275.  0.14697E-04
  5280.  0.14694E-04
  5285.  0.14762E-04
  5290.  0.14930E-04
  5295.  0.15124E-04
  5300.  0.15307E-04
  5305.  0.15513E-04
  5310.  0.15745E-04
  5315.  0.15986E-04
  5320.  0.16210E-04
  5325.  0.16391E-04
  5330.  0.16518E-04
  5335.  0.16597E-04
  5340.  0.16671E-04
  5345.  0.16728E-04
  5350.  0.16685E-04
  5355.  0.16542E-04
  5360.  0.16396E-04
  5365.  0.16231E-04
  5370.  0.15994E-04
  5375.  0.15699E-04
  5380.  0.15388E-04
  5385.  0.15060E-04
  5390.  0.14752E-04
  5395.  0.14482E-04
  5400.  0.14240E-04
  5405.  0.14046E-04
  5410.  0.13898E-04
  5415.  0.13787E-04
  5420.  0.13704E-04
  5425.  0.13617E-04
  5430.  0.13504E-04
  5435.  0.13404E-04
  5440.  0.13320E-04
  5445.  0.13206E-04
  5450.  0.13059E-04
  5455.  0.12886E-04
  5460.  0.12663E-04
  5465.  0.12421E-04
  5470.  0.12202E-04
  5475.  0.12001E-04
  5480.  0.11792E-04
  5485.  0.11569E-04
  5490.  0.11382E-04
  5495.  0.11271E-04
  5500.  0.11167E-04
  5505.  0.11044E-04
  5510.  0.10974E-04
  5515.  0.10972E-04
  5520.  0.11009E-04
  5525.  0.11052E-04
  5530.  0.11084E-04
  5535.  0.11108E-04
  5540.  0.11140E-04
  5545.  0.11184E-04
  5550.  0.11232E-04
  5555.  0.11295E-04
  5560.  0.11366E-04
  5565.  0.11426E-04
  5570.  0.11495E-04
  5575.  0.11588E-04
  5580.  0.11726E-04
  5585.  0.11899E-04
  5590.  0.12050E-04
  5595.  0.12176E-04
  5600.  0.12266E-04
  5605.  0.12297E-04
  5610.  0.12257E-04
  5615.  0.12231E-04
  5620.  0.12347E-04
  5625.  0.12726E-04
  5630.  0.13472E-04
  5635.  0.14567E-04
  5640.  0.15985E-04
  5645.  0.17581E-04
  5650.  0.19245E-04
  5655.  0.20796E-04
  5660.  0.22185E-04
  5665.  0.23409E-04
  5670.  0.24391E-04
  5675.  0.25138E-04
  5680.  0.25636E-04
  5685.  0.25973E-04
  5690.  0.26222E-04
  5695.  0.26470E-04
  5700.  0.26720E-04
  5705.  0.26865E-04
  5710.  0.26789E-04
  5715.  0.26503E-04
  5720.  0.26025E-04
  5725.  0.25343E-04
  5730.  0.24517E-04
  5735.  0.23621E-04
  5740.  0.22784E-04
  5745.  0.22136E-04
  5750.  0.21697E-04
  5755.  0.21439E-04
  5760.  0.21340E-04
  5765.  0.21454E-04
  5770.  0.21724E-04
  5775.  0.22094E-04
  5780.  0.22498E-04
  5785.  0.22932E-04
  5790.  0.23398E-04
  5795.  0.23889E-04
  5800.  0.24405E-04
  5805.  0.24949E-04
  5810.  0.25484E-04
  5815.  0.25957E-04
  5820.  0.26346E-04
  5825.  0.26615E-04
  5830.  0.26708E-04
  5835.  0.26645E-04
  5840.  0.26438E-04
  5845.  0.26037E-04
  5850.  0.25370E-04
  5855.  0.24523E-04
  5860.  0.23585E-04
  5865.  0.22619E-04
  5870.  0.21601E-04
  5875.  0.20617E-04
  5880.  0.19730E-04
  5885.  0.18991E-04
  5890.  0.18496E-04
  5895.  0.18303E-04
  5900.  0.18395E-04
  5905.  0.18711E-04
  5910.  0.19195E-04
  5915.  0.19767E-04
  5920.  0.20381E-04
  5925.  0.20909E-04
  5930.  0.21328E-04
  5935.  0.21709E-04
  5940.  0.22093E-04
  5945.  0.22453E-04
  5950.  0.22777E-04
  5955.  0.23069E-04
  5960.  0.23305E-04
  5965.  0.23471E-04
  5970.  0.23538E-04
  5975.  0.23442E-04
  5980.  0.23217E-04
  5985.  0.22893E-04
  5990.  0.22487E-04
  5995.  0.22067E-04
  6000.  0.21754E-04
  6005.  0.21566E-04
  6010.  0.21526E-04
  6015.  0.21640E-04
  6020.  0.21876E-04
  6025.  0.22196E-04
  6030.  0.22576E-04
  6035.  0.22946E-04
  6040.  0.23287E-04
  6045.  0.23673E-04
  6050.  0.24112E-04
  6055.  0.24628E-04
  6060.  0.25237E-04
  6065.  0.25859E-04
  6070.  0.26428E-04
  6075.  0.26892E-04
  6080.  0.27218E-04
  6085.  0.27304E-04
  6090.  0.27152E-04
  6095.  0.26910E-04
  6100.  0.26626E-04
  6105.  0.26324E-04
  6110.  0.26097E-04
  6115.  0.26080E-04
  6120.  0.26226E-04
  6125.  0.26405E-04
  6130.  0.26515E-04
  6135.  0.26576E-04
  6140.  0.26605E-04
  6145.  0.26578E-04
  6150.  0.26506E-04
  6155.  0.26422E-04
  6160.  0.26348E-04
  6165.  0.26263E-04
  6170.  0.26176E-04
  6175.  0.26104E-04
  6180.  0.26071E-04
  6185.  0.26032E-04
  6190.  0.25960E-04
  6195.  0.25821E-04
  6200.  0.25607E-04
  6205.  0.25353E-04
  6210.  0.25087E-04
  6215.  0.24868E-04
  6220.  0.24802E-04
  6225.  0.24904E-04
  6230.  0.25136E-04
  6235.  0.25433E-04
  6240.  0.25793E-04
  6245.  0.26123E-04
  6250.  0.26379E-04
  6255.  0.26598E-04
  6260.  0.26802E-04
  6265.  0.27005E-04
  6270.  0.27264E-04
  6275.  0.27666E-04
  6280.  0.28216E-04
  6285.  0.28779E-04
  6290.  0.29241E-04
  6295.  0.29521E-04
  6300.  0.29683E-04
  6305.  0.29791E-04
  6310.  0.29764E-04
  6315.  0.29543E-04
  6320.  0.29177E-04
  6325.  0.28687E-04
  6330.  0.28102E-04
  6335.  0.27422E-04
  6340.  0.26746E-04
  6345.  0.26194E-04
  6350.  0.25803E-04
  6355.  0.25565E-04
  6360.  0.25536E-04
  6365.  0.25727E-04
  6370.  0.26055E-04
  6375.  0.26497E-04
  6380.  0.26949E-04
  6385.  0.27379E-04
  6390.  0.27758E-04
  6395.  0.28097E-04
  6400.  0.28418E-04
  6405.  0.28720E-04
  6410.  0.29006E-04
  6415.  0.29277E-04
  6420.  0.29528E-04
  6425.  0.29785E-04
  6430.  0.30061E-04
  6435.  0.30333E-04
  6440.  0.30514E-04
  6445.  0.30555E-04
  6450.  0.30468E-04
  6455.  0.30304E-04
  6460.  0.30016E-04
  6465.  0.29566E-04
  6470.  0.29017E-04
  6475.  0.28455E-04
  6480.  0.27858E-04
  6485.  0.27211E-04
  6490.  0.26631E-04
  6495.  0.26241E-04
  6500.  0.26089E-04
  6505.  0.26222E-04
  6510.  0.26660E-04
  6515.  0.27372E-04
  6520.  0.28184E-04
  6525.  0.29020E-04
  6530.  0.29926E-04
  6535.  0.30843E-04
  6540.  0.31649E-04
  6545.  0.32314E-04
  6550.  0.32918E-04
  6555.  0.33415E-04
  6560.  0.33739E-04
  6565.  0.33925E-04
  6570.  0.34027E-04
  6575.  0.34072E-04
  6580.  0.34085E-04
  6585.  0.34141E-04
  6590.  0.34356E-04
  6595.  0.34748E-04
  6600.  0.35246E-04
  6605.  0.35698E-04
  6610.  0.36003E-04
  6615.  0.36082E-04
  6620.  0.35907E-04
  6625.  0.35500E-04
  6630.  0.34903E-04
  6635.  0.34230E-04
  6640.  0.33549E-04
  6645.  0.32954E-04
  6650.  0.32494E-04
  6655.  0.32235E-04
  6660.  0.32263E-04
  6665.  0.32619E-04
  6670.  0.33250E-04
  6675.  0.34074E-04
  6680.  0.35004E-04
  6685.  0.36005E-04
  6690.  0.37055E-04
  6695.  0.38052E-04
  6700.  0.38858E-04
  6705.  0.39436E-04
  6710.  0.39894E-04
  6715.  0.40328E-04
  6720.  0.40722E-04
  6725.  0.41014E-04
  6730.  0.41245E-04
  6735.  0.41492E-04
  6740.  0.41824E-04
  6745.  0.42277E-04
  6750.  0.42901E-04
  6755.  0.43582E-04
  6760.  0.44155E-04
  6765.  0.44569E-04
  6770.  0.44791E-04
  6775.  0.44845E-04
  6780.  0.44755E-04
  6785.  0.44516E-04
  6790.  0.44134E-04
  6795.  0.43805E-04
  6800.  0.43626E-04
  6805.  0.43467E-04
  6810.  0.43308E-04
  6815.  0.43258E-04
  6820.  0.43343E-04
  6825.  0.43521E-04
  6830.  0.43786E-04
  6835.  0.44138E-04
  6840.  0.44516E-04
  6845.  0.44979E-04
  6850.  0.45668E-04
  6855.  0.46626E-04
  6860.  0.47911E-04
  6865.  0.49540E-04
  6870.  0.51249E-04
  6875.  0.52738E-04
  6880.  0.53450E-04
  6885.  0.53205E-04
  6890.  0.52064E-04
  6895.  0.50317E-04
  6900.  0.48201E-04
  6905.  0.45721E-04
  6910.  0.43055E-04
  6915.  0.40288E-04
  6920.  0.37633E-04
  6925.  0.35196E-04
  6930.  0.33037E-04
  6935.  0.31143E-04
  6940.  0.29514E-04
  6945.  0.28273E-04
  6950.  0.27545E-04
  6955.  0.27267E-04
  6960.  0.27413E-04
  6965.  0.27788E-04
  6970.  0.28280E-04
  6975.  0.28734E-04
  6980.  0.29089E-04
  6985.  0.29380E-04
  6990.  0.29656E-04
  6995.  0.30010E-04
  7000.  0.30507E-04
  7005.  0.31235E-04
  7010.  0.32163E-04
  7015.  0.33164E-04
  7020.  0.34266E-04
  7025.  0.35544E-04
  7030.  0.36897E-04
  7035.  0.38143E-04
  7040.  0.39089E-04
  7045.  0.39568E-04
  7050.  0.39510E-04
  7055.  0.38937E-04
  7060.  0.37938E-04
  7065.  0.36496E-04
  7070.  0.34725E-04
  7075.  0.32760E-04
  7080.  0.30881E-04
  7085.  0.29181E-04
  7090.  0.27776E-04
  7095.  0.26616E-04
  7100.  0.25650E-04
  7105.  0.25002E-04
  7110.  0.24683E-04
  7115.  0.24626E-04
  7120.  0.24831E-04
  7125.  0.25295E-04
  7130.  0.25978E-04
  7135.  0.26675E-04
  7140.  0.27306E-04
  7145.  0.27899E-04
  7150.  0.28452E-04
  7155.  0.28983E-04
  7160.  0.29578E-04
  7165.  0.30382E-04
  7170.  0.31306E-04
  7175.  0.32349E-04
  7180.  0.33587E-04
  7185.  0.34933E-04
  7190.  0.36228E-04
  7195.  0.37332E-04
  7200.  0.38220E-04
  7205.  0.38915E-04
  7210.  0.39311E-04
  7215.  0.39347E-04
  7220.  0.39120E-04
  7225.  0.38596E-04
  7230.  0.37932E-04
  7235.  0.37111E-04
  7240.  0.36213E-04
  7245.  0.35238E-04
  7250.  0.34224E-04
  7255.  0.33343E-04
  7260.  0.32644E-04
  7265.  0.32083E-04
  7270.  0.31603E-04
  7275.  0.31322E-04
  7280.  0.31345E-04
  7285.  0.31610E-04
  7290.  0.32102E-04
  7295.  0.32768E-04
  7300.  0.33468E-04
  7305.  0.34044E-04
  7310.  0.34481E-04
  7315.  0.34836E-04
  7320.  0.35076E-04
  7325.  0.35273E-04
  7330.  0.35580E-04
  7335.  0.36092E-04
  7340.  0.36762E-04
  7345.  0.37513E-04
  7350.  0.38254E-04
  7355.  0.38934E-04
  7360.  0.39648E-04
  7365.  0.40434E-04
  7370.  0.41221E-04
  7375.  0.41989E-04
  7380.  0.42782E-04
  7385.  0.43614E-04
  7390.  0.44417E-04
  7395.  0.45083E-04
  7400.  0.45419E-04
  7405.  0.45389E-04
  7410.  0.45136E-04
  7415.  0.44662E-04
  7420.  0.44031E-04
  7425.  0.43360E-04
  7430.  0.42714E-04
  7435.  0.42021E-04
  7440.  0.41402E-04
  7445.  0.40967E-04
  7450.  0.40653E-04
  7455.  0.40406E-04
  7460.  0.40277E-04
  7465.  0.40318E-04
  7470.  0.40588E-04
  7475.  0.41244E-04
  7480.  0.42254E-04
  7485.  0.43313E-04
  7490.  0.44428E-04
  7495.  0.45603E-04
  7500.  0.46733E-04
  7505.  0.47639E-04
  7510.  0.48333E-04
  7515.  0.48978E-04
  7520.  0.49665E-04
  7525.  0.50424E-04
  7530.  0.51123E-04
  7535.  0.51776E-04
  7540.  0.52510E-04
  7545.  0.53191E-04
  7550.  0.53562E-04
  7555.  0.53683E-04
  7560.  0.53579E-04
  7565.  0.53015E-04
  7570.  0.51907E-04
  7575.  0.50665E-04
  7580.  0.49815E-04
  7585.  0.49633E-04
  7590.  0.50291E-04
  7595.  0.51563E-04
  7600.  0.53677E-04
  7605.  0.56012E-04
  7610.  0.57764E-04
  7615.  0.59105E-04
  7620.  0.59797E-04
  7625.  0.60406E-04
  7630.  0.60779E-04
  7635.  0.60686E-04
  7640.  0.60108E-04
  7645.  0.59504E-04
  7650.  0.59050E-04
  7655.  0.58623E-04
  7660.  0.58304E-04
  7665.  0.58379E-04
  7670.  0.58758E-04
  7675.  0.59140E-04
  7680.  0.59332E-04
  7685.  0.59370E-04
  7690.  0.59306E-04
  7695.  0.59195E-04
  7700.  0.59020E-04
  7705.  0.58914E-04
  7710.  0.58849E-04
  7715.  0.58835E-04
  7720.  0.58968E-04
  7725.  0.59133E-04
  7730.  0.59381E-04
  7735.  0.59925E-04
  7740.  0.60677E-04
  7745.  0.61428E-04
  7750.  0.62055E-04
  7755.  0.62684E-04
  7760.  0.63386E-04
  7765.  0.63991E-04
  7770.  0.64375E-04
  7775.  0.64726E-04
  7780.  0.65176E-04
  7785.  0.65504E-04
  7790.  0.65566E-04
  7795.  0.65524E-04
  7800.  0.65510E-04
  7805.  0.65477E-04
  7810.  0.65241E-04
  7815.  0.64661E-04
  7820.  0.63728E-04
  7825.  0.62299E-04
  7830.  0.60193E-04
  7835.  0.57620E-04
  7840.  0.54927E-04
  7845.  0.52327E-04
  7850.  0.49715E-04
  7855.  0.47129E-04
  7860.  0.44682E-04
  7865.  0.42486E-04
  7870.  0.40411E-04
  7875.  0.38337E-04
  7880.  0.36357E-04
  7885.  0.34571E-04
  7890.  0.33059E-04
  7895.  0.31783E-04
  7900.  0.30666E-04
  7905.  0.29774E-04
  7910.  0.29087E-04
  7915.  0.28500E-04
  7920.  0.27948E-04
  7925.  0.27546E-04
  7930.  0.27327E-04
  7935.  0.27314E-04
  7940.  0.27566E-04
  7945.  0.28235E-04
  7950.  0.29390E-04
  7955.  0.30846E-04
  7960.  0.32505E-04
  7965.  0.34155E-04
  7970.  0.35727E-04
  7975.  0.37163E-04
  7980.  0.38415E-04
  7985.  0.39348E-04
  7990.  0.39928E-04
  7995.  0.40441E-04
  8000.  0.40982E-04
  8005.  0.41535E-04
  8010.  0.42041E-04
  8015.  0.42409E-04
  8020.  0.42489E-04
  8025.  0.42220E-04
  8030.  0.41579E-04
  8035.  0.40570E-04
  8040.  0.39382E-04
  8045.  0.37960E-04
  8050.  0.36307E-04
  8055.  0.34591E-04
  8060.  0.33038E-04
  8065.  0.31648E-04
  8070.  0.30352E-04
  8075.  0.29129E-04
  8080.  0.27964E-04
  8085.  0.26988E-04
  8090.  0.26346E-04
  8095.  0.26023E-04
  8100.  0.25995E-04
  8105.  0.26169E-04
  8110.  0.26495E-04
  8115.  0.26884E-04
  8120.  0.27327E-04
  8125.  0.27840E-04
  8130.  0.28351E-04
  8135.  0.28870E-04
  8140.  0.29447E-04
  8145.  0.30131E-04
  8150.  0.30970E-04
  8155.  0.31891E-04
  8160.  0.32927E-04
  8165.  0.34084E-04
  8170.  0.35343E-04
  8175.  0.36703E-04
  8180.  0.37994E-04
  8185.  0.39024E-04
  8190.  0.39632E-04
  8195.  0.39845E-04
  8200.  0.40126E-04
  8205.  0.40688E-04
  8210.  0.41475E-04
  8215.  0.42386E-04
  8220.  0.43376E-04
  8225.  0.44095E-04
  8230.  0.44188E-04
  8235.  0.43820E-04
  8240.  0.43160E-04
  8245.  0.42355E-04
  8250.  0.41578E-04
  8255.  0.40969E-04
  8260.  0.40514E-04
  8265.  0.40125E-04
  8270.  0.39754E-04
  8275.  0.39381E-04
  8280.  0.38934E-04
  8285.  0.38197E-04
  8290.  0.37202E-04
  8295.  0.36401E-04
  8300.  0.36004E-04
  8305.  0.35964E-04
  8310.  0.36236E-04
  8315.  0.36716E-04
  8320.  0.37289E-04
  8325.  0.37893E-04
  8330.  0.38533E-04
  8335.  0.39230E-04
  8340.  0.39847E-04
  8345.  0.40312E-04
  8350.  0.40815E-04
  8355.  0.41433E-04
  8360.  0.42065E-04
  8365.  0.42688E-04
  8370.  0.43390E-04
  8375.  0.44163E-04
  8380.  0.44919E-04
  8385.  0.45574E-04
  8390.  0.46112E-04
  8395.  0.46661E-04
  8400.  0.47291E-04
  8405.  0.47919E-04
  8410.  0.48594E-04
  8415.  0.49223E-04
  8420.  0.49654E-04
  8425.  0.49970E-04
  8430.  0.50275E-04
  8435.  0.50529E-04
  8440.  0.50740E-04
  8445.  0.50986E-04
  8450.  0.51203E-04
  8455.  0.51312E-04
  8460.  0.51243E-04
  8465.  0.50929E-04
  8470.  0.50534E-04
  8475.  0.50034E-04
  8480.  0.49487E-04
  8485.  0.48851E-04
  8490.  0.48074E-04
  8495.  0.47337E-04
  8500.  0.46654E-04
  8505.  0.46017E-04
  8510.  0.45317E-04
  8515.  0.44588E-04
  8520.  0.44082E-04
  8525.  0.43952E-04
  8530.  0.44264E-04
  8535.  0.45048E-04
  8540.  0.46180E-04
  8545.  0.47449E-04
  8550.  0.48673E-04
  8555.  0.49858E-04
  8560.  0.50905E-04
  8565.  0.51860E-04
  8570.  0.52767E-04
  8575.  0.53520E-04
  8580.  0.54143E-04
  8585.  0.54661E-04
  8590.  0.55279E-04
  8595.  0.55858E-04
  8600.  0.56318E-04
  8605.  0.56770E-04
  8610.  0.57281E-04
  8615.  0.57783E-04
  8620.  0.58244E-04
  8625.  0.58762E-04
  8630.  0.59170E-04
  8635.  0.59375E-04
  8640.  0.59233E-04
  8645.  0.58855E-04
  8650.  0.58431E-04
  8655.  0.58087E-04
  8660.  0.57939E-04
  8665.  0.58278E-04
  8670.  0.58939E-04
  8675.  0.59783E-04
  8680.  0.60572E-04
  8685.  0.61229E-04
  8690.  0.61766E-04
  8695.  0.62161E-04
  8700.  0.62599E-04
  8705.  0.63046E-04
  8710.  0.63498E-04
  8715.  0.63768E-04
  8720.  0.63713E-04
  8725.  0.63361E-04
  8730.  0.62832E-04
  8735.  0.62032E-04
  8740.  0.60761E-04
  8745.  0.59392E-04
  8750.  0.58387E-04
  8755.  0.57880E-04
  8760.  0.57855E-04
  8765.  0.58315E-04
  8770.  0.59132E-04
  8775.  0.59917E-04
  8780.  0.60564E-04
  8785.  0.61222E-04
  8790.  0.61789E-04
  8795.  0.61981E-04
  8800.  0.61986E-04
  8805.  0.62146E-04
  8810.  0.62436E-04
  8815.  0.62781E-04
  8820.  0.63264E-04
  8825.  0.64058E-04
  8830.  0.64937E-04
  8835.  0.65628E-04
  8840.  0.65990E-04
  8845.  0.66167E-04
  8850.  0.66161E-04
  8855.  0.65993E-04
  8860.  0.65575E-04
  8865.  0.65311E-04
  8870.  0.65541E-04
  8875.  0.66333E-04
  8880.  0.67106E-04
  8885.  0.67754E-04
  8890.  0.68553E-04
  8895.  0.69410E-04
  8900.  0.69928E-04
  8905.  0.70039E-04
  8910.  0.69979E-04
  8915.  0.69989E-04
  8920.  0.70103E-04
  8925.  0.70263E-04
  8930.  0.70429E-04
  8935.  0.70732E-04
  8940.  0.71233E-04
  8945.  0.71804E-04
  8950.  0.72111E-04
  8955.  0.72115E-04
  8960.  0.72138E-04
  8965.  0.72121E-04
  8970.  0.72079E-04
  8975.  0.72044E-04
  8980.  0.71962E-04
  8985.  0.71878E-04
  8990.  0.72033E-04
  8995.  0.72222E-04
  9000.  0.72186E-04
  9005.  0.72226E-04
  9010.  0.72373E-04
  9015.  0.72797E-04
  9020.  0.73201E-04
  9025.  0.73361E-04
  9030.  0.73222E-04
  9035.  0.72823E-04
  9040.  0.72080E-04
  9045.  0.71401E-04
  9050.  0.71005E-04
  9055.  0.70915E-04
  9060.  0.71001E-04
  9065.  0.71501E-04
  9070.  0.72275E-04
  9075.  0.72775E-04
  9080.  0.72529E-04
  9085.  0.71930E-04
  9090.  0.71081E-04
  9095.  0.69351E-04
  9100.  0.66561E-04
  9105.  0.63497E-04
  9110.  0.60885E-04
  9115.  0.58534E-04
  9120.  0.56256E-04
  9125.  0.54061E-04
  9130.  0.51657E-04
  9135.  0.48904E-04
  9140.  0.46211E-04
  9145.  0.43897E-04
  9150.  0.41795E-04
  9155.  0.39761E-04
  9160.  0.38037E-04
  9165.  0.36553E-04
  9170.  0.35140E-04
  9175.  0.33897E-04
  9180.  0.32848E-04
  9185.  0.31813E-04
  9190.  0.30865E-04
  9195.  0.30313E-04
  9200.  0.30209E-04
  9205.  0.30453E-04
  9210.  0.31012E-04
  9215.  0.31891E-04
  9220.  0.32720E-04
  9225.  0.33350E-04
  9230.  0.34035E-04
  9235.  0.34769E-04
  9240.  0.35558E-04
  9245.  0.36163E-04
  9250.  0.36546E-04
  9255.  0.36816E-04
  9260.  0.37027E-04
  9265.  0.37132E-04
  9270.  0.37233E-04
  9275.  0.37472E-04
  9280.  0.37809E-04
  9285.  0.38050E-04
  9290.  0.38332E-04
  9295.  0.38535E-04
  9300.  0.38502E-04
  9305.  0.38303E-04
  9310.  0.38028E-04
  9315.  0.37795E-04
  9320.  0.37732E-04
  9325.  0.37901E-04
  9330.  0.38235E-04
  9335.  0.38395E-04
  9340.  0.38220E-04
  9345.  0.37950E-04
  9350.  0.37667E-04
  9355.  0.37348E-04
  9360.  0.37255E-04
  9365.  0.37614E-04
  9370.  0.38421E-04
  9375.  0.39014E-04
  9380.  0.38763E-04
  9385.  0.38078E-04
  9390.  0.36791E-04
  9395.  0.35118E-04
  9400.  0.33851E-04
  9405.  0.33091E-04
  9410.  0.32547E-04
  9415.  0.32069E-04
  9420.  0.31620E-04
  9425.  0.31439E-04
  9430.  0.31872E-04
  9435.  0.32506E-04
  9440.  0.32901E-04
  9445.  0.33050E-04
  9450.  0.32859E-04
  9455.  0.32894E-04
  9460.  0.33909E-04
  9465.  0.35776E-04
  9470.  0.37745E-04
  9475.  0.39419E-04
  9480.  0.41244E-04
  9485.  0.43238E-04
  9490.  0.44950E-04
  9495.  0.45774E-04
  9500.  0.46238E-04
  9505.  0.46592E-04
  9510.  0.46668E-04
  9515.  0.46567E-04
  9520.  0.47135E-04
  9525.  0.48510E-04
  9530.  0.49289E-04
  9535.  0.48903E-04
  9540.  0.48293E-04
  9545.  0.48227E-04
  9550.  0.48353E-04
  9555.  0.48239E-04
  9560.  0.48271E-04
  9565.  0.48444E-04
  9570.  0.48187E-04
  9575.  0.47466E-04
  9580.  0.46738E-04
  9585.  0.46252E-04
  9590.  0.46188E-04
  9595.  0.46771E-04
  9600.  0.47700E-04
  9605.  0.48197E-04
  9610.  0.48202E-04
  9615.  0.48220E-04
  9620.  0.48296E-04
  9625.  0.48135E-04
  9630.  0.47683E-04
  9635.  0.46983E-04
  9640.  0.46073E-04
  9645.  0.45168E-04
  9650.  0.44492E-04
  9655.  0.43831E-04
  9660.  0.43359E-04
  9665.  0.43160E-04
  9670.  0.42744E-04
  9675.  0.41825E-04
  9680.  0.40864E-04
  9685.  0.40188E-04
  9690.  0.39840E-04
  9695.  0.39861E-04
  9700.  0.39014E-04
  9705.  0.38116E-04
  9710.  0.40080E-04
  9715.  0.41671E-04
  9720.  0.41237E-04
  9725.  0.40740E-04
  9730.  0.41106E-04
  9735.  0.42280E-04
  9740.  0.42251E-04
  9745.  0.42349E-04
  9750.  0.43023E-04
  9755.  0.42356E-04
  9760.  0.41671E-04
  9765.  0.43333E-04
  9770.  0.45153E-04
  9775.  0.45061E-04
  9780.  0.43336E-04
  9785.  0.42897E-04
  9790.  0.44797E-04
  9795.  0.46528E-04
  9800.  0.47565E-04
  9805.  0.47662E-04
  9810.  0.48635E-04
  9815.  0.51582E-04
  9820.  0.52355E-04
  9825.  0.51636E-04
  9830.  0.51199E-04
